time [s],Lmtc [m],STIM [ ],Fsee [N]
0.0,0.041540790349245,0.00030517578125,0.2032518109104668
0.0004999999999999,0.0415408462285995,0.0006103515625,0.20329183201311185
0.001,0.0415408089756965,0.00030517578125,0.203263811189955
0.0014999999999999,0.0415407493710517,0.001220703125,0.20322016340461874
0.002,0.0415406711399555,0.0006103515625,0.203164272447715
0.0024999999999999,0.0415407828986644,0.00030517578125,0.20324653559853273
0.003,0.041540939360857,0.0006103515625,0.20335934552890578
0.0034999999999999,0.0415408164262771,0.00091552734375,0.2032681471505262
0.004,0.0415410250425338,0.00030517578125,0.20341837543653293
0.0044999999999999,0.0415407977998256,0.0006103515625,0.20325080872834886
0.005,0.0415407344698905,0.00030517578125,0.2032047558880365
0.0054999999999999,0.041540652513504,0.0,0.20314668855998433
0.006,0.0415406264364719,0.0,0.20313062136497317
0.0064999999999999,0.0415407083928585,0.0006103515625,0.2031924528558249
0.007,0.0415408127009868,0.0,0.20326855357657242
0.0074999999999999,0.0415405854582786,0.00030517578125,0.20310429991562073
0.008,0.0415402799844741,0.0006103515625,0.20288933195635345
0.0084999999999999,0.041539292782545,0.00030517578125,0.2021946353945237
0.009,0.0415368936955928,0.00030517578125,0.20051635456991906
0.0094999999999999,0.0415335148572921,0.00030517578125,0.19821002641966906
0.01,0.0415281504392623,0.00030517578125,0.19460388828490852
0.0104999999999999,0.0415212996304035,0.0006103515625,0.19014026195365252
0.011,0.0415124371647834,0.0006103515625,0.18454110151791983
0.0114999999999999,0.0415027849376201,0.0006103515625,0.17875916652948012
0.012,0.0414912402629852,0.00030517578125,0.17213629534715102
0.0124999999999999,0.0414792895317077,0.0006103515625,0.16578893310876747
0.013,0.041466549038887,0.00030517578125,0.1595306901587633
0.0134999999999999,0.041453581303358,0.0006103515625,0.15379675035647583
0.014,0.0414401814341545,0.0006103515625,0.14849670940479506
0.0144999999999999,0.041426733136177,0.0006103515625,0.14389024952477067
0.015,0.0414139665663242,0.00030517578125,0.14035057865276643
0.0154999999999999,0.041400272399187,0.0006103515625,0.13684821627190502
0.016,0.0413876250386238,0.0006103515625,0.13447104200929424
0.0164999999999999,0.0413745567202568,0.0006103515625,0.13220103040384498
0.017,0.0413616076111793,0.0,0.1302960742589176
0.0174999999999999,0.0413487590849399,0.0,0.12865329527809732
0.018,0.0413357838988304,0.0006103515625,0.12708614968651916
0.0184999999999999,0.0413228943943977,0.00030517578125,0.1256783258098002
0.019,0.0413099527359008,0.0006103515625,0.12431434732207425
0.0194999999999999,0.0412971973419189,0.00030517578125,0.12309973912931403
0.02,0.0412846058607101,0.00091552734375,0.1219837147336905
0.0204999999999999,0.041271761059761,0.0,0.12073516565033982
0.021,0.0412589721381664,0.00091552734375,0.11954226760934794
0.0214999999999999,0.0412461534142494,0.00030517578125,0.1183492721662497
0.022,0.0412331782281398,0.0006103515625,0.11709463223429371
0.0224999999999999,0.041220411658287,0.0006103515625,0.11597192494435703
0.023,0.0412076786160469,0.00091552734375,0.11486384984821321
0.0234999999999999,0.0411947555840015,0.00030517578125,0.11366014347216102
0.024,0.0411819480359554,0.0006103515625,0.11253015923366178
0.0244999999999999,0.0411695837974548,0.00030517578125,0.11161637788097711
0.025,0.0411566458642482,0.0006103515625,0.11038404371294487
0.0254999999999999,0.0411438457667827,0.00030517578125,0.1092505238127238
0.026,0.041131068021059,0.00091552734375,0.10813641130262973
0.0264999999999999,0.0411183759570121,0.0006103515625,0.1070689764364583
0.027,0.0411054268479347,0.00030517578125,0.10587796291819947
0.0274999999999999,0.041092649102211,0.0006103515625,0.10479278129435557
0.028,0.0410802252590656,0.0006103515625,0.10387346641014229
0.0284999999999999,0.0410674698650836,0.00030517578125,0.10276645645321653
0.029,0.0410546287894248,0.00030517578125,0.10163202600673099
0.0294999999999999,0.0410419031977653,0.0006103515625,0.1005692735335938
0.03,0.0410292223095893,0.0006103515625,0.09953091448981638
0.0304999999999999,0.0410162545740604,0.0,0.09836104706798232
0.031,0.0410035029053688,0.00030517578125,0.09731684825535039
0.0314999999999999,0.0409910045564174,0.0006103515625,0.09638806675553227
0.032,0.0409783907234668,0.0006103515625,0.09538642685988587
0.0324999999999999,0.0409654900431633,0.00030517578125,0.0942529372380642
0.033,0.0409527495503425,0.0,0.09321675657257421
0.0334999999999999,0.0409399941563606,0.0,0.0921793105609706
0.034,0.040927305817604,0.00030517578125,0.091177990364463
0.0344999999999999,0.0409145802259445,-0.00030517578125,0.0901602314994122
0.035,0.0409019589424133,0.00030517578125,0.08919357562824373
0.0354999999999999,0.0408890470862388,0.00091552734375,0.08809602764904681
0.036,0.0408764332532882,0.0006103515625,0.08714975311607003
0.0364999999999999,0.0408639423549175,0.00030517578125,0.08624967198729237
0.037,0.0408509857952594,0.00091552734375,0.08513681670602756
0.0374999999999999,0.0408381894230842,0.0,0.08412319154586745
0.038,0.0408252775669097,0.00030517578125,0.08307030612969835
0.0384999999999999,0.0408127307891845,0.0,0.0821900429136984
0.039,0.0407999493181705,0.00030517578125,0.08119645827884948
0.0394999999999999,0.0407872572541236,0.0,0.08024957202323194
0.04,0.0407744646072387,0.0,0.07926269971537789
0.0404999999999999,0.040761575102806,-0.00030517578125,0.07824607736546808
0.041,0.0407488346099853,0.0006103515625,0.07730673571045112
0.0414999999999999,0.0407361462712287,0.0,0.076390342487885
0.042,0.040723655372858,0.00091552734375,0.07555344571853344
0.0424999999999999,0.0407106950879097,0.00030517578125,0.0745121836471733
0.043,0.0406979918479919,0.00030517578125,0.0736002414925731
0.0434999999999999,0.0406850427389144,0.0006103515625,0.07259146534984869
0.044,0.0406725034117698,0.00030517578125,0.07176532062652319
0.0444999999999999,0.0406597219407558,0.00030517578125,0.0708307972807126
0.045,0.0406468287110328,0.00091552734375,0.06986203352572296
0.0454999999999999,0.0406339205801487,0.00030517578125,0.06890320125242103
0.046,0.0406213961541652,0.00091552734375,0.06810680960724447
0.0464999999999999,0.0406086705625057,0.001220703125,0.06721857358305487
0.047,0.0405958369374275,0.0006103515625,0.06629362787113409
0.0474999999999999,0.0405829548835754,0.0006103515625,0.06536162523802563
0.048,0.0405704416334629,0.00030517578125,0.06458206233940117
0.0484999999999999,0.0405576825141906,0.00030517578125,0.06369740030344485
0.049,0.0405447147786617,0.00030517578125,0.06274230557935762
0.0494999999999999,0.0405319854617118,0.00091552734375,0.06189619072000508
0.05,0.0405192151665687,0.0006103515625,0.06103641386251063
0.0504999999999999,0.040506538003683,0.00091552734375,0.060216189463774106
0.051,0.0404935143887996,0.00091552734375,0.05926930911299593
0.0514999999999999,0.0404808148741722,0.0006103515625,0.05846181702883489
0.052,0.0404679179191589,0.0006103515625,0.05758271580095168
0.0524999999999999,0.0404549278318882,0.0006103515625,0.05668218607104059
0.053,0.0404422581195831,0.00030517578125,0.05591008482466928
0.0534999999999999,0.0404297299683094,0.0006103515625,0.055183174319607904
0.054,0.0404167063534259,0.00030517578125,0.05427296641886375
0.0544999999999999,0.0404037646949291,0.00091552734375,0.053411652485362775
0.055,0.0403911881148815,0.0,0.052687870407447907
0.0554999999999999,0.040378738194704,0.0006103515625,0.051998661411547034
0.056,0.0403659977018833,0.0,0.051198351839060095
0.0564999999999999,0.0403531491756439,0.0,0.05036770548241912
0.057,0.0403405725955963,0.0006103515625,0.04964038408454161
0.0574999999999999,0.040327675640583,0.0006103515625,0.04880247093483066
0.058,0.0403151363134384,0.0006103515625,0.04809737155138563
0.0584999999999999,0.0403023473918437,0.00030517578125,0.047304883616520466
0.059,0.040289718657732,0.0,0.046574793166295536
0.0595,0.0402764938771724,0.0,0.04565209163353811
0.06,0.0402641780674457,0.00030517578125,0.04505056785749931
0.0605,0.0402515232563018,0.0006103515625,0.04432344072006616
0.061,0.0402386635541915,0.0006103515625,0.04353476004027309
0.0615,0.0402256846427917,0.0006103515625,0.04272110700951519
0.062,0.0402131751179695,0.0006103515625,0.042069861513998434
0.0625,0.0402003489434719,0.00030517578125,0.04131444513227312
0.0629999999999999,0.0401874966919422,0.00091552734375,0.04056019121833382
0.0635,0.0401750653982162,0.00091552734375,0.039943888794956674
0.0639999999999999,0.0401622280478477,0.00030517578125,0.03919624691392748
0.0645,0.0401497818529605,0.00030517578125,0.03857644453528907
0.0649999999999999,0.040136843919754,-0.00030517578125,0.03780451873983844
0.0655,0.0401243194937706,0.00030517578125,0.03716999873235039
0.0659999999999999,0.0401113517582416,0.00030517578125,0.03640405227202799
0.0665,0.0400985591113567,0.0006103515625,0.03570487771254164
0.0669999999999999,0.0400858409702777,0.00030517578125,0.03503465087204355
0.0675,0.0400729998946189,0.0006103515625,0.03433382169152336
0.0679999999999999,0.0400604456663131,0.0006103515625,0.03372293103583215
0.0685,0.0400474220514297,0.001220703125,0.032979225388328266
0.0689999999999999,0.0400349982082843,0.001220703125,0.03241705188357013
0.0695,0.0400219708681106,0.0006103515625,0.03168317705847763
0.0699999999999999,0.0400092750787735,0.00030517578125,0.031054824227372484
0.0705,0.0399966575205326,0.0006103515625,0.030450550933402393
0.0709999999999999,0.0399838387966156,0.0,0.02979371558996746
0.0715,0.0399712286889553,0.0,0.029199994455543266
0.0719999999999999,0.0399582833051681,0.00030517578125,0.02851984167446783
0.0725,0.0399459600448608,0.0006103515625,0.028012232300299124
0.0729999999999999,0.0399330742657184,0.0006103515625,0.027353670716007798
0.0735,0.0399201698601245,0.00030517578125,0.02670172359336966
0.0739999999999999,0.0399075038731098,0.0,0.026120297514074714
0.0745,0.0398945398628711,0.0006103515625,0.025468369753538174
0.0749999999999999,0.0398821905255317,0.00030517578125,0.02497808126992136
0.0755,0.0398694686591625,0.0006103515625,0.024391630173129633
0.0759999999999999,0.0398565679788589,0.0,0.023768615940550908
0.0765,0.0398436710238456,0.0,0.023157294248506783
0.0769999999999999,0.0398309081792831,-0.00030517578125,0.022586804677734544
0.0775,0.0398183651268482,0.0006103515625,0.02207264294238857
0.0779999999999999,0.0398054346442222,0.00030517578125,0.021470415263779408
0.0785,0.0397929362952709,0.0006103515625,0.020975927377448075
0.0789999999999999,0.0397799424827098,0.0006103515625,0.020371039679198188
0.0795,0.0397672019898891,0.00091552734375,0.019833788175087425
0.0799999999999999,0.0397545769810676,0.00030517578125,0.019326566374206332
0.0805,0.0397420190274715,0.00030517578125,0.01883637395537591
0.0809999999999999,0.039729006588459,0.0,0.01825203434662065
0.0815,0.0397165790200233,0.0006103515625,0.017801515658950873
0.0819999999999999,0.0397034138441085,0.00030517578125,0.017198696445955126
0.0825,0.0396910086274147,0.00091552734375,0.01676474770078916
0.0829999999999999,0.0396776869893074,0.0006103515625,0.01614705810979393
0.0835,0.0396652705967426,0.00091552734375,0.01572464027713183
0.0839999999999999,0.0396521985530853,0.001220703125,0.015174520428316155
0.0845,0.0396393798291683,0.0006103515625,0.014684692641880305
0.0849999999999999,0.0396268181502819,0.00091552734375,0.01424954794918006
0.0855,0.0396137423813343,0.00030517578125,0.013721687904148178
0.0859999999999999,0.0396015122532844,0.0006103515625,0.013358327911686653
0.0865,0.0395883508026599,0.0006103515625,0.0128253034992327
0.0869999999999999,0.0395760051906108,0.00030517578125,0.012448185420366176
0.0875,0.039563201367855,0.00030517578125,0.011991061170700456
0.0879999999999999,0.0395504049956798,0.0006103515625,0.01154249371446031
0.0885,0.0395376719534397,0.0006103515625,0.011111529192106633
0.0889999999999999,0.0395248644053936,-0.00030517578125,0.010674405145973148
0.0895,0.0395123586058616,0.00030517578125,0.010292665741763156
0.0899999999999999,0.0394994802772998,0.0006103515625,0.009855352547662677
0.0905,0.0394867435097694,0.0006103515625,0.009448368349844957
0.0909999999999999,0.0394741855561733,0.00091552734375,0.009074652826971378
0.0915,0.0394612476229667,0.00030517578125,0.008649078571862558
0.0919999999999999,0.039448507130146,0.00030517578125,0.008261408546630357
0.0925,0.0394358411431312,0.00091552734375,0.007890871407183964
0.0929999999999999,0.0394229590892791,0.00030517578125,0.00749647045471411
0.0935,0.0394104607403278,0.00030517578125,0.007162100078093435
0.0939999999999999,0.0393978133797645,0.00030517578125,0.006812153545148715
0.0945,0.0393848270177841,0.00030517578125,0.0064251513940931015
0.0949999999999999,0.0393721535801887,0.0006103515625,0.006087154681539007
0.0955,0.0393596813082695,0.00030517578125,0.005779814129256208
0.0959999999999999,0.0393468812108039,0.00030517578125,0.005438525037234969
0.0965,0.0393336080014705,0.0006103515625,0.0050521887250034175
0.0969999999999999,0.0393209531903266,0.0006103515625,0.004747432004461886
0.0975,0.0393083356320858,0.0006103515625,0.004453247070225966
0.0979999999999999,0.0392958857119083,0.0006103515625,0.004182826272958515
0.0985,0.0392827093601226,0.0006103515625,0.003845431413486762
0.0989999999999999,0.0392701476812362,0.0,0.003579545574227739
0.0995,0.0392574444413185,0.0006103515625,0.003307211301566565
0.0999999999999999,0.0392446592450141,0.00091552734375,0.003035928613049797
0.1005,0.0392320491373539,0.0006103515625,0.0027887079105994397
0.1009999999999999,0.0392191931605339,0.0,0.002529567442715636
0.1015,0.0392060801386833,0.00030517578125,0.002261380180867341
0.1019999999999999,0.0391937606036663,0.0,0.0020637769743232152
0.1025,0.0391807369887828,0.00091552734375,0.0018237244925194513
0.1029999999999999,0.0391681119799613,0.00030517578125,0.001622243947298816
0.1035,0.0391555055975914,0.00030517578125,0.0014312830147163275
0.1039999999999999,0.0391429625451564,0.00091552734375,0.001253547261619478
0.1045,0.0391300469636917,0.00030517578125,0.001065701801269818
0.1049999999999999,0.039117332547903,0.0006103515625,0.0009009060792759307
0.1055,0.0391045957803726,0.0006103515625,0.000747028136401343
0.1059999999999999,0.0390916392207145,0.0006103515625,0.0005970762782057618
0.1065,0.0390789695084095,0.0006103515625,0.00047230742991592246
0.1069999999999999,0.0390662476420402,0.00030517578125,0.0003589878495630819
0.1075,0.039053414016962,0.0,0.0002569170399582839
0.1079999999999999,0.0390408188104629,0.0006103515625,0.00017578406875739562
0.1085,0.039027914404869,0.0006103515625,0.00010386031211331005
0.1089999999999999,0.0390151403844356,0.00091552734375,5.156158673068479e-05
0.1095,0.0390024073421955,0.00030517578125,1.7234884464717907e-05
0.1099999999999999,0.0389894619584083,0.00030517578125,8.032544221561539e-07
0.1105,0.0389769226312637,0.0006103515625,0.0
0.1109999999999999,0.0389641635119915,0.00091552734375,0.0
0.1115,0.0389514304697513,0.00030517578125,0.0
0.1119999999999999,0.0389384999871254,-0.00030517578125,0.0
0.1125,0.0389258451759815,0.00030517578125,0.0
0.1129999999999999,0.0389133170247077,0.00030517578125,0.0
0.1135,0.038899939507246,0.00030517578125,0.0
0.1139999999999999,0.0388874411582946,0.0006103515625,0.0
0.1145,0.0388744287192821,0.00091552734375,0.0
0.1149999999999999,0.0388618782162666,0.0006103515625,0.0
0.1155,0.0388490930199623,0.00030517578125,0.0
0.1159999999999999,0.0388363972306251,0.0006103515625,0.0
0.1165,0.0388239026069641,0.001220703125,0.0
0.1169999999999999,0.0388110429048538,0.00030517578125,0.0
0.1175,0.0387984216213226,0.00030517578125,0.0
0.118,0.0387856513261795,0.00030517578125,0.0
0.1185,0.0387728549540042,0.00091552734375,0.0
0.119,0.0387601777911186,0.00030517578125,0.0
0.1195,0.0387473590672016,0.001220703125,0.0
0.12,0.0387347266077995,0.00030517578125,0.0
0.1205,0.0387220121920108,0.0006103515625,0.0
0.121,0.0387093983590602,0.00030517578125,0.0
0.1215,0.03869653865695,0.0006103515625,0.0
0.122,0.0386838652193546,0.00030517578125,0.0
0.1225,0.0386708453297615,0.001220703125,0.0
0.123,0.0386582687497139,0.00091552734375,0.0
0.1235,0.0386457107961177,0.00030517578125,0.0
0.124,0.0386328026652336,0.0006103515625,0.0
0.1245,0.0386201627552509,0.0006103515625,0.0
0.125,0.0386073887348175,0.00030517578125,0.0
0.1254999999999999,0.0385948978364467,0.0,0.0
0.126,0.0385819301009178,0.00030517578125,0.0
0.1264999999999999,0.0385694801807403,0.0006103515625,0.0
0.127,0.0385563783347606,0.00030517578125,0.0
0.1274999999999999,0.0385436862707138,0.0,0.0
0.128,0.0385308563709259,0.00030517578125,0.0
0.1284999999999999,0.0385180786252021,0.00091552734375,0.0
0.129,0.0385055840015411,0.00091552734375,0.0
0.1294999999999999,0.0384927615523338,0.0,0.0
0.13,0.038480021059513,0.0,0.0
0.1304999999999999,0.038467202335596,0.0006103515625,0.0
0.131,0.0384544990956783,0.00091552734375,0.0
0.1314999999999999,0.0384414047002792,0.0006103515625,0.0
0.132,0.0384289287030696,0.0006103515625,0.0
0.1324999999999999,0.0384159870445728,0.0006103515625,0.0
0.133,0.0384033434092998,0.0,0.0
0.1334999999999999,0.0383907444775104,0.0,0.0
0.134,0.0383781567215919,0.00030517578125,0.0
0.1344999999999999,0.0383652262389659,0.0,0.0
0.135,0.0383524671196937,0.0006103515625,0.0
0.1354999999999999,0.0383399873971939,-0.00030517578125,0.0
0.136,0.0383271276950836,0.0006103515625,0.0
0.1364999999999999,0.0383142866194248,0.00030517578125,0.0
0.137,0.0383014045655727,0.0,0.0
0.1374999999999999,0.0382887348532676,0.00091552734375,0.0
0.138,0.0382761098444461,0.0006103515625,0.0
0.1384999999999999,0.0382633022964,0.00030517578125,0.0
0.139,0.0382503159344196,0.0006103515625,0.0
0.1394999999999999,0.0382377691566944,0.0006103515625,0.0
0.14,0.0382249094545841,0.00091552734375,0.0
0.1404999999999999,0.0382120721042156,0.00030517578125,0.0
0.141,0.0381995365023613,0.00091552734375,0.0
0.1414999999999999,0.0381865836679935,0.00091552734375,0.0
0.142,0.038173820823431,0.0006103515625,0.0
0.1424999999999999,0.0381612889468669,0.0,0.0
0.143,0.0381485074758529,0.00091552734375,0.0
0.1434999999999999,0.0381357781589031,0.0006103515625,0.0
0.144,0.0381229445338249,0.0,0.0
0.1444999999999999,0.0381103605031967,0.0,0.0
0.145,0.0380971729755401,0.0006103515625,0.0
0.1454999999999999,0.0380843318998813,0.0006103515625,0.0
0.146,0.0380718186497688,0.0006103515625,0.0
0.1464999999999999,0.0380588993430137,0.00030517578125,0.0
0.147,0.0380463637411594,0.00030517578125,0.0
0.1474999999999999,0.0380334556102752,0.0,0.0
0.148,0.0380210056900978,0.0006103515625,0.0
0.1484999999999999,0.0380077734589576,0.00091552734375,0.0
0.149,0.0379953607916832,0.0006103515625,0.0
0.1494999999999999,0.0379824303090572,0.00091552734375,0.0
0.15,0.0379698388278484,0.0006103515625,0.0
0.1504999999999999,0.0379569306969642,0.0006103515625,0.0
0.151,0.0379442386329174,0.00091552734375,0.0
0.1514999999999999,0.037931703031063,0.00030517578125,0.0
0.152,0.0379188433289527,0.00030517578125,0.0
0.1524999999999999,0.0379060618579387,-0.00030517578125,0.0
0.153,0.0378932505846023,0.0006103515625,0.0
0.1534999999999999,0.037880640476942,0.00030517578125,0.0
0.154,0.0378680005669593,0.0006103515625,0.0
0.1544999999999999,0.037855289876461,0.0006103515625,0.0
0.155,0.0378423519432544,0.0006103515625,0.0
0.1554999999999999,0.0378297679126262,0.00030517578125,0.0
0.156,0.0378168746829032,0.0006103515625,0.0
0.1564999999999999,0.0378044322133064,0.00030517578125,0.0
0.157,0.0377916172146797,0.0006103515625,0.0
0.1574999999999999,0.0377787686884403,0.00091552734375,0.0
0.158,0.0377659872174263,0.0006103515625,0.0
0.1584999999999999,0.0377532728016376,0.0,0.0
0.159,0.0377404764294624,0.00091552734375,0.0
0.1594999999999999,0.0377275720238685,0.00030517578125,0.0
0.16,0.0377149693667888,0.00091552734375,0.0
0.1604999999999999,0.0377021506428718,0.00091552734375,0.0
0.161,0.0376894399523735,0.00091552734375,0.0
0.1614999999999999,0.0376767292618751,0.001220703125,0.0
0.162,0.0376640297472476,0.0006103515625,0.0
0.1624999999999999,0.0376509949564933,0.00030517578125,0.0
0.163,0.0376382991671562,0.0006103515625,0.0
