time [s],Lmtc [m],STIM [ ],Fsee [N]
0.0,0.0415409617125988,0.0006103515625,0.203266511157163
0.0004999999999999,0.041540864855051,0.00030517578125,0.2031964827500926
0.001,0.0415404587984085,0.0006103515625,0.20290681918479184
0.0014999999999999,0.041541114449501,0.0006103515625,0.20338876631706682
0.002,0.0415407083928585,0.00030517578125,0.2030932374340664
0.0024999999999999,0.0415409542620182,0.00030517578125,0.20327474111431
0.003,0.041540540754795,0.00091552734375,0.20297700219337253
0.0034999999999999,0.0415409132838249,0.0006103515625,0.20325290524508824
0.004,0.0415408201515674,0.0006103515625,0.20318554007465
0.0044999999999999,0.0415407195687294,0.00091552734375,0.20311459038773994
0.005,0.0415411591529846,0.00030517578125,0.2034348787569458
0.0054999999999999,0.0415406227111816,0.0006103515625,0.20304427830968136
0.006,0.0415407158434391,0.00030517578125,0.20311746300058955
0.0064999999999999,0.0415405519306659,0.0006103515625,0.20300386756841352
0.007,0.0415403917431831,0.00091552734375,0.20289665583865277
0.0074999999999999,0.0415392033755779,0.00091552734375,0.20205776672557435
0.008,0.0415372550487518,0.0,0.20070599370575753
0.0084999999999999,0.0415336415171623,0.00030517578125,0.1982260469219527
0.009,0.0415284112095832,0.00030517578125,0.19471351369936415
0.0094999999999999,0.0415205582976341,0.0,0.1895528727267817
0.01,0.0415109954774379,0.0006103515625,0.18351501259707545
0.0104999999999999,0.0414991900324821,0.00030517578125,0.1763766350525714
0.011,0.0414854511618614,0.00030517578125,0.16853037916216712
0.0114999999999999,0.0414707884192466,0.00091552734375,0.16082245152245453
0.012,0.041454117745161,0.0,0.15273719125296173
0.0124999999999999,0.0414370186626911,0.00030517578125,0.14549385091531017
0.013,0.041419219225645,0.00030517578125,0.13904040303202864
0.0134999999999999,0.0414010025560855,0.0006103515625,0.13363024838560028
0.014,0.0413824692368507,0.0,0.12925009661636588
0.0144999999999999,0.0413642935454845,0.00030517578125,0.12603313174486813
0.015,0.0413458943367004,0.0,0.12334315946318168
0.0154999999999999,0.0413277372717857,0.0,0.12119120338311593
0.016,0.0413093976676464,0.00091552734375,0.11916786866329158
0.0164999999999999,0.0412916131317615,0.00030517578125,0.11753581269638448
0.017,0.0412741713225841,0.00030517578125,0.11605835373028896
0.0174999999999999,0.0412559248507022,0.0006103515625,0.11417049208503295
0.018,0.0412383042275905,0.00030517578125,0.11266617032135953
0.0184999999999999,0.0412205569446086,0.0006103515625,0.11106754187770254
0.019,0.0412027910351753,0.0,0.10946547761193803
0.0194999999999999,0.0411847345530986,0.0,0.10774547032089836
0.02,0.0411669909954071,0.00030517578125,0.10621507437724692
0.0204999999999999,0.0411495342850685,0.00030517578125,0.10479754003576836
0.021,0.0411316491663455,0.0,0.10314933088355702
0.0214999999999999,0.0411140769720077,0.0006103515625,0.10167780425108577
0.022,0.041096244007349,0.00030517578125,0.10007806602150764
0.0224999999999999,0.041078396141529,0.00030517578125,0.09850181189993215
0.023,0.0410608872771263,0.00030517578125,0.09709440681359402
0.0234999999999999,0.0410431586205959,0.0006103515625,0.09556909606158163
0.024,0.0410252287983894,0.0006103515625,0.09397620756115055
0.0244999999999999,0.0410075820982456,0.00030517578125,0.09253965151619957
0.025,0.0409900732338428,0.00091552734375,0.09115179741538793
0.0254999999999999,0.0409725755453109,0.0006103515625,0.08975329631386841
0.026,0.0409545339643955,0.0006103515625,0.08812279435335618
0.0264999999999999,0.0409369878470897,0.0,0.08676073353864962
0.027,0.0409189686179161,0.0006103515625,0.08519166426922359
0.0274999999999999,0.0409009978175163,0.0006103515625,0.08369170774581236
0.028,0.0408834889531135,0.00030517578125,0.08240506943377812
0.0284999999999999,0.040865920484066,0.00091552734375,0.08106423741098581
0.029,0.0408479832112789,0.00030517578125,0.07956900794573561
0.0294999999999999,0.0408303774893283,0.00091552734375,0.07824426411389852
0.03,0.0408123433589935,0.0006103515625,0.07674528414427617
0.0304999999999999,0.0407946407794952,0.00030517578125,0.07541721788286472
0.031,0.0407771579921245,0.0006103515625,0.0741706146304644
0.0314999999999999,0.040759190917015,0.0006103515625,0.0727202392447484
0.032,0.0407415032386779,0.00030517578125,0.07141578160660145
0.0324999999999999,0.0407236889004707,0.001220703125,0.07006374233045848
0.033,0.0407061800360679,0.0006103515625,0.06884212186744358
0.0334999999999999,0.0406883880496025,0.0006103515625,0.06750093548658738
0.034,0.0406707823276519,0.00030517578125,0.0662488864435969
0.0344999999999999,0.0406529940664768,0.0006103515625,0.06493157431729336
0.035,0.0406350716948509,0.0,0.06358650296383785
0.0354999999999999,0.0406173728406429,0.0006103515625,0.06234964710589939
0.036,0.0405996181070804,0.0,0.061095631964559714
0.0364999999999999,0.0405819155275821,0.00091552734375,0.059870523974837456
0.037,0.0405640639364719,0.0006103515625,0.05859920150105561
0.0374999999999999,0.0405465140938758,0.0006103515625,0.057451660537598696
0.038,0.0405286140739917,0.00030517578125,0.05617606023924633
0.0384999999999999,0.0405110791325569,0.0006103515625,0.0550503917263774
0.039,0.0404931418597698,0.00030517578125,0.05378225298073796
0.0394999999999999,0.0404752567410469,0.0006103515625,0.05256132835849981
0.04,0.0404575020074844,0.0006103515625,0.05140299741894256
0.0404999999999999,0.0404396504163742,0.0,0.05021945092306209
0.041,0.040422074496746,0.00030517578125,0.04913980016653855
0.0414999999999999,0.0404041931033134,0.00030517578125,0.04795594420109158
0.042,0.040386751294136,0.0006103515625,0.046931510444382256
0.0424999999999999,0.0403686687350273,0.00030517578125,0.045694856429892045
0.043,0.0403510332107543,0.00030517578125,0.04463354587452163
0.0434999999999999,0.0403337627649307,0.00030517578125,0.043682373384729634
0.044,0.0403160452842712,0.0006103515625,0.04257502444886474
0.0444999999999999,0.0402981080114841,0.00030517578125,0.04141957530372405
0.045,0.0402804166078567,0.00091552734375,0.0403657100284875
0.0454999999999999,0.0402627997100353,0.0006103515625,0.03934213406263906
0.046,0.0402450114488601,0.0006103515625,0.038273665747388524
0.0464999999999999,0.0402275025844574,0.0006103515625,0.03730193453657986
0.047,0.0402093939483165,0.0006103515625,0.036160142250880885
0.0474999999999999,0.0401920638978481,0.0006103515625,0.03526977338136553
0.048,0.0401742383837699,0.0006103515625,0.034229631418053276
0.0484999999999999,0.0401568077504634,0.0006103515625,0.03331586702320249
0.049,0.0401389673352241,0.00091552734375,0.03228918296990253
0.0494999999999999,0.0401212163269519,0.00030517578125,0.03130706848800735
0.05,0.0401036404073238,0.0006103515625,0.03038499055029505
0.0504999999999999,0.0400854349136352,0.001220703125,0.029306808865442846
0.051,0.0400680303573608,0.0006103515625,0.028467116897960155
0.0514999999999999,0.0400500521063804,-0.00030517578125,0.027478026561060274
0.052,0.0400325804948806,0.00030517578125,0.026636200518267428
0.0524999999999999,0.0400148443877697,0.0006103515625,0.025728975949518673
0.053,0.039997175335884,0.00030517578125,0.024850445088780176
0.0534999999999999,0.0399791896343231,0.00091552734375,0.023907555218411945
0.054,0.0399617776274681,0.00091552734375,0.02311905461314179
0.0544999999999999,0.0399439446628093,0.00091552734375,0.022233801544108707
0.055,0.0399261973798275,0.0006103515625,0.021384535486524716
0.0554999999999999,0.0399084948003292,0.0006103515625,0.020557697157730977
0.056,0.0398907363414764,0.0,0.01972982735592499
0.0564999999999999,0.0398731976747512,0.00030517578125,0.01896156206057374
0.057,0.0398549772799015,0.00030517578125,0.01805904395113156
0.0574999999999999,0.0398377478122711,0.00030517578125,0.01738442220728308
0.058,0.0398198701441288,0.00091552734375,0.016576699888322183
0.0584999999999999,0.0398022793233394,-0.00030517578125,0.0158423001802957
0.059,0.0397845022380352,0.0006103515625,0.015081496365328129
0.0595,0.0397665165364742,0.0006103515625,0.014297282024034392
0.06,0.0397489443421363,0.0006103515625,0.013607653879182925
0.0605,0.0397311188280582,0.0006103515625,0.012881788497535884
0.061,0.0397134386003017,0.00091552734375,0.012196385507012216
0.0615,0.0396957509219646,0.0,0.011521514464663755
0.062,0.0396780595183372,0.0006103515625,0.010858615456973785
0.0625,0.0396599993109703,0.0006103515625,0.010151117306222816
0.0629999999999999,0.0396425500512123,0.00030517578125,0.009558122644969587
0.0635,0.0396246388554573,0.00030517578125,0.008904847907786766
0.0639999999999999,0.039606999605894,0.0,0.008308918277904158
0.0645,0.0395893268287181,0.00030517578125,0.007721318792726632
0.0649999999999999,0.0395715311169624,0.00091552734375,0.007131832237783107
0.0655,0.0395537316799163,0.0006103515625,0.006559280430457592
0.0659999999999999,0.0395358428359031,0.00030517578125,0.00599359053082821
0.0665,0.0395183004438877,0.0,0.00548770216858314
0.0669999999999999,0.0395007655024528,0.0006103515625,0.004996506467275321
0.0675,0.0394829697906971,0.0006103515625,0.004492659976144955
0.0679999999999999,0.0394653305411338,0.001220703125,0.0040247645389318645
0.0685,0.0394476875662803,0.00091552734375,0.0035749861136433296
0.0689999999999999,0.0394297093152999,0.0,0.003115032247599703
0.0695,0.0394121445715427,0.00030517578125,0.0027150271541076325
0.0699999999999999,0.0393940582871437,0.0006103515625,0.0022954301095606455
0.0705,0.0393768176436424,0.001220703125,0.0019645808579159944
0.0709999999999999,0.0393591821193695,0.0006103515625,0.001626483110855201
0.0715,0.0393412411212921,0.0006103515625,0.0012965364072970353
0.0719999999999999,0.0393234342336654,0.0006103515625,0.001005421072514077
0.0725,0.0393056310713291,0.0006103515625,0.0007462891778995881
0.0729999999999999,0.0392877906560897,0.0006103515625,0.0005197072083838855
0.0735,0.0392700210213661,0.00030517578125,0.00033212020559205785
0.0739999999999999,0.0392523370683193,0.00091552734375,0.00018503263527601047
0.0745,0.0392345823347568,0.00030517578125,7.73989801986689e-05
0.0749999999999999,0.039216935634613,0.0,1.5562239677423597e-05
0.0755,0.0391993150115013,0.00091552734375,0.0
0.0759999999999999,0.039181787520647,0.00091552734375,0.0
0.0765,0.0391636677086353,0.0,0.0
0.0769999999999999,0.0391462631523609,0.0,0.0
0.0775,0.0391283594071865,0.0006103515625,0.0
0.0779999999999999,0.0391108505427837,0.0006103515625,0.0
0.0785,0.0390929244458675,0.0006103515625,0.0
0.0789999999999999,0.0390753410756588,0.0006103515625,0.0
0.0795,0.0390575602650642,0.0006103515625,0.0
0.0799999999999999,0.0390397198498249,0.00030517578125,0.0
0.0805,0.0390220619738101,0.0006103515625,0.0
0.0809999999999999,0.0390039011836051,0.0006103515625,0.0
0.0815,0.0389862917363643,0.0006103515625,0.0
0.0819999999999999,0.0389688722789287,0.00030517578125,0.0
0.0825,0.038951177150011,0.0006103515625,0.0
0.0829999999999999,0.0389332734048366,0.00030517578125,0.0
0.0835,0.0389157719910144,0.0006103515625,0.0
0.0839999999999999,0.0388976074755191,0.00030517578125,0.0
0.0845,0.038880068808794,0.0006103515625,0.0
0.0849999999999999,0.0388618931174278,0.00091552734375,0.0
0.0855,0.0388444028794765,0.00030517578125,0.0
0.0859999999999999,0.0388269424438476,0.00091552734375,0.0
0.0865,0.0388090386986732,0.00152587890625,0.0
0.0869999999999999,0.0387913770973682,0.0006103515625,0.0
0.0875,0.0387734584510326,0.00091552734375,0.0
0.0879999999999999,0.0387559384107589,0.00091552734375,0.0
0.0885,0.0387381240725517,0.00030517578125,0.0
0.0889999999999999,0.0387202948331832,0.0006103515625,0.0
0.0895,0.0387030914425849,0.0006103515625,0.0
0.0899999999999999,0.0386853776872158,0.0,0.0
0.0905,0.0386674478650093,0.0,0.0
0.0909999999999999,0.0386496596038341,0.0006103515625,0.0
0.0915,0.0386323072016239,0.001220703125,0.0
0.0919999999999999,0.0386144183576107,0.0,0.0
0.0925,0.0385966077446937,-0.00030517578125,0.0
0.0929999999999999,0.0385791026055812,0.00030517578125,0.0
0.0935,0.0385611876845359,0.0006103515625,0.0
0.0939999999999999,0.0385435335338115,0.0006103515625,0.0
0.0945,0.0385261140763759,0.00091552734375,0.0
0.0949999999999999,0.0385082811117172,0.001220703125,0.0
0.0955,0.0384902581572532,0.00091552734375,0.0
0.0959999999999999,0.0384727492928504,0.00030517578125,0.0
0.0965,0.0384545885026454,0.00091552734375,0.0
0.0969999999999999,0.0384372621774673,0.00091552734375,0.0
0.0975,0.0384196415543556,0.0006103515625,0.0
0.0979999999999999,0.0384017452597618,0.00091552734375,0.0
0.0985,0.0383838675916194,0.0006103515625,0.0
0.0989999999999999,0.0383661836385726,0.00030517578125,0.0
0.0995,0.0383484251797199,0.0006103515625,0.0
0.0999999999999999,0.0383310727775096,0.00091552734375,0.0
0.1005,0.0383128896355629,0.00030517578125,0.0
0.1009999999999999,0.0382954105734825,0.0006103515625,0.0
0.1015,0.0382778570055961,0.00030517578125,0.0
0.1019999999999999,0.038259919732809,0.00030517578125,0.0
0.1025,0.0382421538233757,0.00030517578125,0.0
0.1029999999999999,0.0382244363427162,0.0006103515625,0.0
0.1035,0.0382067300379276,0.0006103515625,0.0
0.1039999999999999,0.0381887406110763,0.0006103515625,0.0
0.1045,0.0381712093949317,0.0006103515625,0.0
0.1049999999999999,0.0381534658372402,0.00030517578125,0.0
0.1055,0.0381355695426464,0.0006103515625,0.0
0.1059999999999999,0.0381179973483085,0.00030517578125,0.0
0.1065,0.0381001494824886,0.00091552734375,0.0
0.1069999999999999,0.0380822718143463,0.00030517578125,0.0
0.1075,0.0380644686520099,0.0,0.0
0.1079999999999999,0.0380468592047691,0.00091552734375,0.0
0.1085,0.0380292013287544,0.00030517578125,0.0
0.1089999999999999,0.0380115583539009,0.00030517578125,0.0
0.1095,0.0379939228296279,0.00091552734375,0.0
0.1099999999999999,0.0379760712385177,0.0006103515625,0.0
0.1105,0.0379583537578582,0.0006103515625,0.0
0.1109999999999999,0.0379404388368129,0.00091552734375,0.0
0.1115,0.0379228703677654,0.00091552734375,0.0
0.1119999999999999,0.0379050746560096,0.00030517578125,0.0
0.1125,0.0378875024616718,0.00030517578125,0.0
0.1129999999999999,0.037869893014431,0.00030517578125,0.0
0.1135,0.0378523021936416,0.00091552734375,0.0
0.1139999999999999,0.0378342643380165,0.00091552734375,0.0
0.1145,0.0378166735172271,0.0006103515625,0.0
0.1149999999999999,0.0377990156412124,0.0006103515625,0.0
0.1155,0.0377812795341014,0.0006103515625,0.0
0.1159999999999999,0.0377632491290569,0.0006103515625,0.0
0.1165,0.0377456955611705,0.00091552734375,0.0
0.1169999999999999,0.0377277806401252,0.0,0.0
0.1175,0.037710178643465,0.0006103515625,0.0
0.118,0.0376923121511936,0.00030517578125,0.0
0.1185,0.0376749113202095,0.00030517578125,0.0
0.119,0.0376571528613567,0.00091552734375,0.0
0.1195,0.0376395098865032,0.0006103515625,0.0
0.12,0.0376224964857101,0.0006103515625,0.0
0.1205,0.0376054942607879,0.0006103515625,0.0
0.121,0.0375896468758583,0.0006103515625,0.0
0.1215,0.0375744588673114,0.0006103515625,0.0
0.122,0.037561297416687,0.0,0.0
0.1225,0.037549540400505,0.001220703125,0.0
0.123,0.0375404432415962,0.00091552734375,0.0
0.1235,0.0375333279371261,0.0006103515625,0.0
0.124,0.0375293903052806,0.0,0.0
0.1245,0.0375278629362583,0.00030517578125,0.0
0.125,0.0375293828547,0.0006103515625,0.0
0.1254999999999999,0.0375331379473209,0.0006103515625,0.0
0.126,0.0375387817621231,0.00091552734375,0.0
0.1264999999999999,0.0375464335083961,0.0,0.0
0.127,0.0375548414885997,0.00091552734375,0.0
0.1274999999999999,0.0375641733407974,-0.0006103515625,0.0
0.128,0.0375736095011234,0.00030517578125,0.0
0.1284999999999999,0.0375832691788673,0.0006103515625,0.0
0.129,0.0375928916037082,0.0006103515625,0.0
0.1294999999999999,0.0376021675765514,0.0006103515625,0.0
0.13,0.0376115031540393,0.0006103515625,0.0
0.1304999999999999,0.0376206971704959,0.00030517578125,0.0
0.131,0.0376300513744354,0.0006103515625,0.0
0.1314999999999999,0.0376390255987644,0.00030517578125,0.0
0.132,0.0376483313739299,0.0006103515625,0.0
0.1324999999999999,0.0376575328409671,0.0006103515625,0.0
0.133,0.0376666039228439,0.0,0.0
0.1334999999999999,0.0376761481165885,0.00091552734375,0.0
0.134,0.0376856513321399,0.0006103515625,0.0
0.1344999999999999,0.0376947671175003,0.0006103515625,0.0
0.135,0.0377041809260845,0.00030517578125,0.0
0.1354999999999999,0.0377136617898941,0.0006103515625,0.0
0.136,0.0377229936420917,0.0,0.0
0.1364999999999999,0.0377324149012565,0.0006103515625,0.0
0.137,0.0377417914569377,0.0006103515625,0.0
0.1374999999999999,0.0377510152757167,0.00030517578125,0.0
0.138,0.0377602949738502,0.001220703125,0.0
0.1384999999999999,0.0377696603536605,0.00030517578125,0.0
0.139,0.0377789959311485,0.00091552734375,0.0
0.1394999999999999,0.0377884544432163,0.0006103515625,0.0
0.14,0.0377979315817356,0.00091552734375,0.0
0.1404999999999999,0.0378075018525123,0.0006103515625,0.0
0.141,0.0378166325390338,0.0006103515625,0.0
0.1414999999999999,0.0378260388970375,0.00030517578125,0.0
0.142,0.0378354266285896,0.00091552734375,0.0
0.1424999999999999,0.0378449223935604,0.00030517578125,0.0
0.143,0.0378540977835655,0.0006103515625,0.0
0.1434999999999999,0.0378635600209236,0.00091552734375,0.0
0.144,0.0378728881478309,0.001220703125,0.0
0.1444999999999999,0.0378821268677711,0.0,0.0
0.145,0.0378918871283531,0.0006103515625,0.0
0.1454999999999999,0.0379006564617157,0.00030517578125,0.0
0.146,0.037910122424364,0.00091552734375,0.0
0.1464999999999999,0.0379193350672721,0.0006103515625,0.0
0.147,0.0379289053380489,0.0006103515625,0.0
0.1474999999999999,0.0379378162324428,0.00030517578125,0.0
0.148,0.0379474498331546,0.0,0.0
0.1484999999999999,0.0379563681781291,-0.00030517578125,0.0
0.149,0.037966065108776,0.0006103515625,0.0
0.1494999999999999,0.0379752703011035,0.001220703125,0.0
0.15,0.0379845760762691,0.00091552734375,0.0
0.1504999999999999,0.0379941314458847,0.00091552734375,0.0
0.151,0.0380032584071159,0.00091552734375,0.0
0.1514999999999999,0.0380129180848598,0.0006103515625,0.0
0.152,0.0380220673978328,0.00030517578125,0.0
0.1524999999999999,0.0380314216017723,0.0006103515625,9.962588201706274e-06
0.153,0.0380406081676483,0.0006103515625,0.0002609633279512134
0.1534999999999999,0.0380504243075847,0.00030517578125,0.0008754417022103996
0.154,0.038059327751398,0.0006103515625,0.0017771117789334705
0.1544999999999999,0.0380689725279808,0.00091552734375,0.0030413704531138254
0.155,0.0380783379077911,0.0,0.004583130625699646
0.1554999999999999,0.0380874425172805,0.0006103515625,0.006367185272265921
0.156,0.0380969941616058,0.0006103515625,0.00846151232060003
0.1564999999999999,0.038106232881546,0.0006103515625,0.010742265024767305
0.157,0.0381155535578727,0.0006103515625,0.013244674810611324
0.1574999999999999,0.0381249524652957,0.00091552734375,0.015952428510185638
0.158,0.0381345450878143,0.00030517578125,0.01887655739257578
0.1584999999999999,0.0381439179182052,0.0,0.02191149005704998
0.159,0.0381535068154335,0.00030517578125,0.02514296185865922
0.1594999999999999,0.0381625741720199,0.00030517578125,0.028368363153593017
0.16,0.0381717570126056,0.00030517578125,0.03173649091134991
0.1604999999999999,0.0381811447441577,0.0006103515625,0.035269250436297875
0.161,0.038190521299839,0.0006103515625,0.03889792604544924
0.1614999999999999,0.0381998755037784,0.00030517578125,0.04261083069640738
0.162,0.0382092073559761,0.00091552734375,0.04640049722216
0.1624999999999999,0.0382189527153968,0.00030517578125,0.05041718309650852
0.163,0.0382281094789505,0.0006103515625,0.0542958632445807
0.1634999999999999,0.0382375419139862,0.0006103515625,0.05834664434688053
0.164,0.0382468067109584,0.001220703125,0.06239738135803139
0.1644999999999999,0.0382560193538665,0.00030517578125,0.066487068622998
0.165,0.0382653027772903,0.00030517578125,0.07066364366496738
0.1654999999999999,0.0382746122777462,0.0006103515625,0.07490714848233387
0.166,0.038284033536911,0.00091552734375,0.07925489913164144
0.1664999999999999,0.0382934622466564,0.00030517578125,0.08365894553705201
0.167,0.038303043693304,0.0006103515625,0.08819408382068586
0.1674999999999999,0.0383121781051158,0.00091552734375,0.09259058911646335
0.168,0.0383215025067329,0.001220703125,0.09714256214173433
