time [s],Lmtc [m],STIM [ ],Fsee [N]
0.0,0.0435486435890197,0.0006103515625,0.4335569908149139
0.0004999999999999,0.0435488931834697,0.00030517578125,0.43381578189973546
0.001,0.0435486547648906,0.0,0.4335540457407288
0.0014999999999999,0.043548610061407,0.0006103515625,0.43350868696958733
0.002,0.0435487627983093,0.0006103515625,0.4336696781817588
0.0024999999999999,0.0435489937663078,0.0006103515625,0.43390266715545495
0.003,0.0435487776994705,0.00030517578125,0.43365898348240944
0.0034999999999999,0.0435488149523735,0.0006103515625,0.43369188185944685
0.004,0.0435485318303108,0.00030517578125,0.4333944913279466
0.0044999999999999,0.0435485132038593,0.0006103515625,0.4333941408984363
0.005,0.0435486920177936,0.0006103515625,0.4335931680061217
0.0054999999999999,0.0435487739741802,0.0006103515625,0.4336759103266268
0.006,0.0435483679175376,0.00030517578125,0.43325481965093027
0.0064999999999999,0.0435477495193481,0.00030517578125,0.43267436169669216
0.007,0.0435459539294242,0.00091552734375,0.4309830727183193
0.0074999999999999,0.0435427092015743,0.0006103515625,0.42809101931074117
0.008,0.0435373298823833,0.00030517578125,0.42356037254557666
0.0084999999999999,0.0435298569500446,0.00030517578125,0.4179566360684901
0.009,0.0435193106532096,0.0006103515625,0.4112026684619815
0.0094999999999999,0.0435066297650337,0.0006103515625,0.40553465095183777
0.01,0.0434912592172622,0.00030517578125,0.4008343274241117
0.0104999999999999,0.04347375780344,0.00030517578125,0.39697087286300486
0.011,0.0434542819857597,0.0006103515625,0.3931659640601897
0.0114999999999999,0.0434333309531211,0.00030517578125,0.3893428906069808
0.012,0.0434108115732669,0.0006103515625,0.38533622762651987
0.0124999999999999,0.0433873459696769,0.00030517578125,0.38131079288288167
0.013,0.0433632433414459,0.00091552734375,0.37729940456262684
0.0134999999999999,0.0433391071856021,0.00030517578125,0.37341959448563344
0.014,0.0433148294687271,0.0006103515625,0.3695360761565537
0.0144999999999999,0.0432901829481124,0.001220703125,0.36552005484828937
0.015,0.0432657673954963,0.0006103515625,0.3617080821926449
0.0154999999999999,0.0432416722178459,0.00030517578125,0.35800763806261077
0.016,0.0432178080081939,0.00030517578125,0.35432992150131226
0.0164999999999999,0.0431939177215099,0.0006103515625,0.35059831278981346
0.017,0.043170653283596,0.00030517578125,0.34714838091366373
0.0174999999999999,0.043146651238203,0.0,0.34328740411535874
0.018,0.0431231744587421,0.00030517578125,0.33981170984565545
0.0184999999999999,0.043099608272314,0.0006103515625,0.33619926750752344
0.019,0.0430760718882083,0.00030517578125,0.33262640492990464
0.0194999999999999,0.0430529303848743,0.0006103515625,0.32926149192110865
0.02,0.0430292710661888,0.00030517578125,0.3255601313688941
0.0204999999999999,0.0430057197809219,0.00030517578125,0.32206496417307157
0.021,0.0429824404418468,0.0006103515625,0.31869137304589473
0.0214999999999999,0.0429587140679359,0.0006103515625,0.31505906674197537
0.022,0.042935412377119,0.00030517578125,0.3117309013839409
0.0224999999999999,0.0429115891456604,0.00030517578125,0.3081113682955895
0.023,0.04288811981678,0.00030517578125,0.3047793331486572
0.0234999999999999,0.0428647138178348,0.0,0.30141104244153116
0.024,0.0428412780165672,0.001220703125,0.2980365284731661
0.0244999999999999,0.0428175441920757,0.0006103515625,0.29453270335004406
0.025,0.042794331908226,0.0006103515625,0.29137344094335915
0.0254999999999999,0.0427703484892845,0.0006103515625,0.28777433700953886
0.026,0.0427467450499534,0.00030517578125,0.2845247258399624
0.0264999999999999,0.0427234210073947,0.00030517578125,0.2813398416371927
0.027,0.0427000038325786,0.0006103515625,0.2780595649189257
0.0274999999999999,0.042676281183958,0.0,0.27466822130151686
0.028,0.0426526740193367,0.0006103515625,0.2714465988156737
0.0284999999999999,0.0426294766366481,0.00030517578125,0.26837822712884346
0.029,0.0426059663295745,0.00091552734375,0.26508402848886303
0.0294999999999999,0.0425824634730815,0.00091552734375,0.2618910908453164
0.03,0.0425589904189109,0.0006103515625,0.25873007109779445
0.0304999999999999,0.0425356999039649,0.00030517578125,0.2556697887178554
0.031,0.0425117835402488,0.00030517578125,0.2522875193962854
0.0314999999999999,0.0424885153770446,0.0006103515625,0.2493663372018446
0.032,0.042465154081583,0.00030517578125,0.2462817295540014
0.0324999999999999,0.0424417108297348,0.0006103515625,0.24317731609283488
0.033,0.0424180179834365,0.0006103515625,0.2399987602681283
0.0334999999999999,0.0423948988318443,0.00030517578125,0.23716818199749493
0.034,0.0423713028430938,0.00091552734375,0.23401072968619996
0.0344999999999999,0.0423477999866008,0.0,0.2310096741678374
0.035,0.0423244014382362,0.0006103515625,0.22806019331175026
0.0354999999999999,0.0423010289669036,0.00152587890625,0.22511732074338306
0.036,0.0422773919999599,0.0006103515625,0.22205232953479725
0.0364999999999999,0.0422540232539176,0.0006103515625,0.2192067264175029
0.037,0.0422302857041358,0.00030517578125,0.21613872397217376
0.0374999999999999,0.0422071404755115,0.00030517578125,0.21345179903721195
0.038,0.0421836785972118,0.0006103515625,0.21050683129037753
0.0384999999999999,0.042160402983427,0.0006103515625,0.20771267357672518
0.039,0.042136613279581,0.00030517578125,0.20466943798023887
0.0394999999999999,0.0421131625771522,0.00030517578125,0.2019123300641686
0.04,0.0420896559953689,0.0006103515625,0.19909580036133018
0.0404999999999999,0.0420662648975849,0.00030517578125,0.19634824293528508
0.041,0.0420428141951561,0.00030517578125,0.19356075262900468
0.0414999999999999,0.0420193150639534,0.0006103515625,0.19078688381114944
0.042,0.0419955253601074,0.0006103515625,0.1879057010134553
0.0424999999999999,0.0419723279774189,0.00030517578125,0.18538754984192707
0.043,0.0419487804174423,0.00091552734375,0.1825910305411351
0.0434999999999999,0.0419253855943679,0.0006103515625,0.17994361765429256
0.044,0.0419021360576152,0.00030517578125,0.17735358961522785
0.0444999999999999,0.0418784394860267,0.0,0.17454639837122568
0.045,0.041855089366436,0.0006103515625,0.17200875114771647
0.0454999999999999,0.0418316237628459,0.0006103515625,0.16937346899450947
0.046,0.0418083108961582,0.00030517578125,0.16683908931416336
0.0464999999999999,0.041785143315792,0.00030517578125,0.16434882166864934
0.047,0.0417617224156856,0.00091552734375,0.16172287370832575
0.0474999999999999,0.0417381711304187,0.0006103515625,0.1591110488555215
0.048,0.0417146421968936,0.0006103515625,0.1565694706653897
0.0484999999999999,0.0416911728680133,0.0006103515625,0.15407522607263388
0.049,0.0416675955057144,0.00030517578125,0.1515414984877473
0.0494999999999999,0.04164420068264,0.00030517578125,0.14912448971586184
0.05,0.0416208878159523,0.0006103515625,0.1467256799578044
0.0504999999999999,0.0415973998606205,0.0006103515625,0.1442437491412925
0.051,0.0415738224983215,0.0,0.14176920562481618
0.0514999999999999,0.041550263762474,0.00091552734375,0.1393508366458123
0.052,0.0415272340178489,0.00091552734375,0.13717618655424557
0.0524999999999999,0.0415034741163253,0.00030517578125,0.13460914293707235
0.053,0.0414800941944122,0.0006103515625,0.13232617988867534
0.0534999999999999,0.0414565578103065,0.0006103515625,0.12995780135074358
0.054,0.0414334237575531,0.0006103515625,0.12779083856322634
0.0544999999999999,0.0414095185697078,0.0006103515625,0.12526245533362546
0.055,0.0413864776492118,0.0006103515625,0.12321647783401274
0.0554999999999999,0.0413631647825241,0.0006103515625,0.12096185323950277
0.056,0.0413394197821617,0.0006103515625,0.11856067275265164
0.0564999999999999,0.0413159132003784,0.00030517578125,0.11635351782919194
0.057,0.0412925109267234,0.0006103515625,0.11419125360746465
0.0574999999999999,0.0412687808275222,0.0,0.11190160899268548
0.058,0.0412450730800628,0.0006103515625,0.10968282821645159
0.0584999999999999,0.0412216894328594,0.0,0.10762114253636051
0.059,0.0411984249949455,0.0006103515625,0.10557794391386957
0.0595,0.0411749072372913,0.00091552734375,0.10341495265227241
0.06,0.0411516949534416,0.0006103515625,0.10140816885925201
0.0605,0.0411279052495956,0.00030517578125,0.09916633462114097
0.061,0.0411046333611011,0.00091552734375,0.09721166339603257
0.0615,0.0410811826586723,0.0006103515625,0.09515693353564855
0.062,0.0410577580332756,0.00091552734375,0.09313395593777792
0.0625,0.0410341843962669,0.00091552734375,0.09107830061826731
0.0629999999999999,0.0410108380019664,-0.00030517578125,0.089145472178894
0.0635,0.0409876406192779,0.00030517578125,0.08725899164130213
0.0639999999999999,0.0409639663994312,0.00030517578125,0.08518530857578364
0.0645,0.0409404002130031,0.00091552734375,0.0832234803714182
0.0649999999999999,0.0409172922372818,0.00030517578125,0.08144995679258542
0.0655,0.0408937521278858,0.0006103515625,0.07948401970339285
0.0659999999999999,0.0408698320388793,0.00030517578125,0.07743010688025655
0.0665,0.0408467203378677,0.0,0.07574919685402187
0.0669999999999999,0.0408230647444725,0.00030517578125,0.07382269640934157
0.0675,0.0407997444272041,0.0006103515625,0.07206005939556068
0.0679999999999999,0.040776252746582,0.00030517578125,0.07023633829652186
0.0685,0.040753211826086,0.0006103515625,0.06858850471703236
0.0689999999999999,0.0407295450568199,0.00030517578125,0.06669614905830269
0.0695,0.0407061539590358,0.00030517578125,0.06496133117239727
0.0699999999999999,0.0406824648380279,0.0006103515625,0.0631433670615244
0.0705,0.0406587049365043,0.0006103515625,0.061353310372866454
0.0709999999999999,0.0406355410814285,0.00030517578125,0.059795970694574076
0.0715,0.0406121201813221,0.0006103515625,0.05811933562992357
0.0719999999999999,0.0405885055661201,0.00030517578125,0.05640066233549009
0.0725,0.0405652932822704,0.00091552734375,0.054848047105900175
0.0729999999999999,0.0405417159199714,0.0,0.05317004308116524
0.0735,0.0405179783701896,-0.00030517578125,0.05148206762395702
0.0739999999999999,0.0404945388436317,0.0006103515625,0.0499299569967435
0.0745,0.0404708683490753,0.0,0.04831336393935292
0.0749999999999999,0.0404473207890987,0.0006103515625,0.04676552040032049
0.0755,0.0404241830110549,0.0006103515625,0.04535271599130431
0.0759999999999999,0.0404004454612731,-0.00030517578125,0.04374763480243361
0.0765,0.040377240628004,0.0,0.042343140679028404
0.0769999999999999,0.0403535179793834,0.0006103515625,0.04078466198269591
0.0775,0.0403301753103733,0.0006103515625,0.03937702593739814
0.0779999999999999,0.0403069071471691,0.00030517578125,0.03799267234064777
0.0785,0.0402834303677082,0.0006103515625,0.036556803247298125
0.0789999999999999,0.0402602590620517,0.001220703125,0.035227794172592884
0.0795,0.040236473083496,0.0006103515625,0.03374028571284553
0.0799999999999999,0.040213219821453,0.00091552734375,0.03244014971453214
0.0805,0.0401898995041847,0.0006103515625,0.031126253726253477
0.0809999999999999,0.0401666052639484,0.0006103515625,0.0298331989824303
0.0815,0.0401428192853927,0.0006103515625,0.02843604174183986
0.0819999999999999,0.0401198640465736,0.0006103515625,0.027281721072547505
0.0825,0.0400962308049202,0.00030517578125,0.025957520063535335
0.0829999999999999,0.0400726720690727,0.00091552734375,0.024690023243314367
0.0835,0.0400490947067737,0.00030517578125,0.023447747295345735
0.0839999999999999,0.0400259345769882,0.0006103515625,0.02232070145754907
0.0845,0.04000224173069,0.00030517578125,0.021085606312340608
0.0849999999999999,0.0399789661169052,0.0006103515625,0.01997255521805638
0.0855,0.0399555750191211,0.00030517578125,0.01884793127714882
0.0859999999999999,0.0399320796132087,0.00030517578125,0.017723704692013422
0.0865,0.0399085618555545,0.00030517578125,0.016621443730058527
0.0869999999999999,0.0398852378129959,0.00030517578125,0.015580410438651758
0.0875,0.0398617908358573,0.001220703125,0.014534932865582228
0.0879999999999999,0.0398381128907203,0.0006103515625,0.013475487805767867
0.0885,0.0398147702217102,0.0006103515625,0.012505559369435067
0.0889999999999999,0.0397914834320545,0.00030517578125,0.011563029598271702
0.0895,0.0397676564753055,0.00030517578125,0.01055781335511314
0.0899999999999999,0.0397443547844886,0.00030517578125,0.009670356306342836
0.0905,0.0397210381925106,0.00030517578125,0.008801921610217173
0.0909999999999999,0.0396974310278892,0.0006103515625,0.007918800629576912
0.0915,0.039673876017332,0.0006103515625,0.007077103959443971
0.0919999999999999,0.0396504513919353,0.00030517578125,0.00628494191382284
0.0925,0.0396271906793117,0.00030517578125,0.005542679841067077
0.0929999999999999,0.0396035648882389,0.0006103515625,0.004791340396045487
0.0935,0.0395804196596145,0.00091552734375,0.004128769265272676
0.0939999999999999,0.0395567156374454,0.0006103515625,0.003447171073818495
0.0945,0.03953318297863,0.0006103515625,0.002828292683537734
0.0949999999999999,0.0395099781453609,-0.00030517578125,0.0022810144152720815
0.0955,0.0394868105649948,0.00030517578125,0.0017801565137499581
0.0959999999999999,0.039463073015213,0.00030517578125,0.0012952056773896513
0.0965,0.0394399091601371,0.00091552734375,0.0009033712227004789
0.0969999999999999,0.0394159480929374,0.00030517578125,0.00054149686651646
0.0975,0.0393927730619907,0.001220703125,0.0002852281144420672
0.0979999999999999,0.039369411766529,0.00030517578125,0.00010194664544985074
0.0985,0.0393458530306816,0.0,8.209913349360523e-06
0.0989999999999999,0.0393225811421871,0.0006103515625,0.0
0.0995,0.0392990373075008,0.00030517578125,0.0
0.0999999999999999,0.0392755307257175,0.0006103515625,0.0
0.1005,0.0392520241439342,0.00091552734375,0.0
0.1009999999999999,0.0392285510897636,0.0006103515625,0.0
0.1015,0.0392048507928848,0.0006103515625,0.0
0.1019999999999999,0.0391817539930343,0.00030517578125,0.0
0.1025,0.0391579158604145,0.0006103515625,0.0
0.1029999999999999,0.0391345545649528,0.0006103515625,0.0
0.1035,0.0391114428639411,0.00030517578125,0.0
0.1039999999999999,0.0390878170728683,0.0006103515625,0.0
0.1045,0.0390643961727619,0.00091552734375,0.0
0.1049999999999999,0.0390409454703331,0.0006103515625,0.0
0.1055,0.039017666131258,0.00030517578125,0.0
0.1059999999999999,0.038994014263153,0.00091552734375,0.0
0.1065,0.0389704965054988,0.00030517578125,0.0
0.1069999999999999,0.0389469414949417,0.00030517578125,0.0
0.1075,0.0389235690236091,0.0,0.0
0.1079999999999999,0.0388998389244079,0.00030517578125,0.0
0.1085,0.0388766229152679,0.0006103515625,0.0
0.1089999999999999,0.0388532057404518,0.00030517578125,0.0
0.1095,0.0388295911252498,0.0006103515625,0.0
0.1099999999999999,0.0388060733675956,0.0006103515625,0.0
0.1105,0.0387823954224586,0.0006103515625,0.0
0.1109999999999999,0.0387593619525432,0.00030517578125,0.0
0.1115,0.0387355834245681,0.00030517578125,0.0
0.1119999999999999,0.0387124940752983,0.00091552734375,0.0
0.1125,0.0386889837682247,0.00030517578125,0.0
0.1129999999999999,0.0386657379567623,0.00030517578125,0.0
0.1135,0.0386423505842685,0.0,0.0
0.1139999999999999,0.0386189222335815,0.00030517578125,0.0
0.1145,0.0385956726968288,0.0006103515625,0.0
0.1149999999999999,0.0385720133781433,0.0,0.0
0.1155,0.0385488010942935,0.0006103515625,0.0
0.1159999999999999,0.0385250784456729,0.00030517578125,0.0
0.1165,0.0385015644133091,0.00091552734375,0.0
0.1169999999999999,0.0384780652821064,0.00091552734375,0.0
0.1175,0.0384547337889671,0.00030517578125,0.0
0.118,0.038431130349636,0.00030517578125,0.0
0.1185,0.0384075045585632,0.0006103515625,0.0
0.119,0.0383843928575515,0.0006103515625,0.0
0.1195,0.0383610762655735,0.00030517578125,0.0
0.12,0.0383374579250812,0.0006103515625,0.0
0.1205,0.0383139476180076,0.00030517578125,0.0
0.121,0.0382905341684818,0.0,0.0
0.1215,0.0382671430706977,0.0006103515625,0.0
0.122,0.0382436215877532,0.0006103515625,0.0
0.1225,0.0382203422486782,0.00030517578125,0.0
0.123,0.0381969138979911,0.0006103515625,0.0
0.1235,0.0381732285022735,0.00030517578125,0.0
0.124,0.0381497032940387,0.0006103515625,0.0
0.1245,0.0381263084709644,0.0006103515625,0.0
0.125,0.0381026938557624,0.0006103515625,0.0
0.1254999999999999,0.0380795262753963,0.00030517578125,0.0
0.126,0.0380560606718063,0.001220703125,0.0
0.1264999999999999,0.0380325317382812,0.00030517578125,0.0
0.127,0.0380089022219181,0.0006103515625,0.0
0.1274999999999999,0.0379854291677475,0.0006103515625,0.0
0.128,0.0379621982574462,0.0006103515625,0.0
0.1284999999999999,0.0379384532570838,0.00030517578125,0.0
0.129,0.037915289402008,0.0006103515625,0.0
0.1294999999999999,0.0378916300833225,0.001220703125,0.0
0.13,0.0378684625029563,0.0006103515625,0.0
0.1304999999999999,0.0378448478877544,0.0,0.0
0.131,0.0378215946257114,0.00091552734375,0.0
0.1314999999999999,0.0377980582416057,0.0,0.0
0.132,0.0377746298909187,-0.00030517578125,0.0
0.1324999999999999,0.0377511568367481,0.0006103515625,0.0
0.133,0.0377276986837387,0.00030517578125,0.0
0.1334999999999999,0.0377040281891822,0.00030517578125,0.0
0.134,0.0376805327832698,0.00030517578125,0.0
0.1344999999999999,0.0376570187509059,0.00030517578125,0.0
0.135,0.0376334823668003,0.0,0.0
0.1354999999999999,0.0376103222370147,0.00030517578125,0.0
0.136,0.0375870130956172,0.0006103515625,0.0
0.1364999999999999,0.0375633239746093,0.00030517578125,0.0
0.137,0.0375399030745029,-0.00030517578125,0.0
0.1374999999999999,0.0375164747238159,0.00030517578125,0.0
0.138,0.0374929718673229,0.0006103515625,0.0
0.1384999999999999,0.0374693758785724,0.0006103515625,0.0
0.139,0.0374461859464645,0.00091552734375,0.0
0.1394999999999999,0.0374224781990051,0.0006103515625,0.0
0.14,0.0373994223773479,0.0006103515625,0.0
0.1404999999999999,0.0373755022883415,0.0006103515625,0.0
0.141,0.0373518727719783,0.0006103515625,0.0
0.1414999999999999,0.0373281836509704,0.00152587890625,0.0
0.142,0.0373048447072505,0.0,0.0
0.1424999999999999,0.0372816510498523,0.00091552734375,0.0
0.143,0.0372577868402004,0.00030517578125,0.0
0.1434999999999999,0.0372346937656402,0.0,0.0
0.144,0.0372110679745674,0.00030517578125,0.0
0.1444999999999999,0.0371881388127803,0.00030517578125,0.0
0.145,0.0371647886931896,0.00091552734375,0.0
0.1454999999999999,0.0371411219239234,0.00091552734375,0.0
0.146,0.0371176451444625,0.0,0.0
0.1464999999999999,0.0370942875742912,0.00091552734375,0.0
0.147,0.0370708517730236,0.00030517578125,0.0
0.1474999999999999,0.037047442048788,0.00091552734375,0.0
0.148,0.0370239801704883,0.00091552734375,0.0
0.1484999999999999,0.0370004139840602,0.0006103515625,0.0
0.149,0.0369769521057605,0.0006103515625,0.0
0.1494999999999999,0.0369537845253944,0.00030517578125,0.0
0.15,0.0369303748011589,0.0006103515625,0.0
0.1504999999999999,0.0369066707789897,0.0,0.0
0.151,0.0368833430111408,0.0006103515625,0.0
0.1514999999999999,0.0368597358465194,0.0,0.0
0.152,0.0368362963199615,0.0006103515625,0.0
0.1524999999999999,0.0368130058050155,0.0006103515625,0.0
0.153,0.0367894731462001,0.00091552734375,0.0
0.1534999999999999,0.0367661751806736,0.0006103515625,0.0
0.154,0.0367424264550209,0.0006103515625,0.0
0.1544999999999999,0.0367189794778823,0.00091552734375,0.0
0.155,0.0366956666111946,0.0,0.0
0.1554999999999999,0.0366724319756031,0.00030517578125,0.0
0.156,0.0366490073502063,0.00030517578125,0.0
0.1564999999999999,0.0366252921521663,0.00091552734375,0.0
0.157,0.0366016030311584,-0.00030517578125,0.0
0.1574999999999999,0.036578245460987,0.00091552734375,0.0
0.158,0.0365549772977829,0.00030517578125,0.0
0.1584999999999999,0.0365313217043876,0.0006103515625,0.0
0.159,0.0365080125629901,0.0006103515625,0.0
0.1594999999999999,0.0364846140146255,0.0006103515625,0.0
0.16,0.0364608988165855,0.00091552734375,0.0
0.1604999999999999,0.0364374294877052,0.00030517578125,0.0
0.161,0.036414198577404,0.001220703125,0.0
0.1614999999999999,0.0363907776772975,0.0006103515625,0.0
0.162,0.0363672487437725,0.001220703125,0.0
0.1624999999999999,0.0363438986241817,0.0006103515625,0.0
0.163,0.0363203138113021,0.0006103515625,0.0
0.1634999999999999,0.0362970419228076,0.00030517578125,0.0
0.164,0.0362738594412803,0.0,0.0
0.1644999999999999,0.0362500436604023,0.0006103515625,0.0
0.165,0.0362267643213272,0.0006103515625,0.0
0.1654999999999999,0.0362031273543834,0.00030517578125,0.0
