time [s],Lmtc [m],STIM [ ],Fsee [N]
0.0,0.0415404252707958,0.00030517578125,0.2032204958848599
0.0004999999999999,0.0415406860411167,0.00091552734375,0.20340875277285014
0.001,0.0415406636893749,0.00091552734375,0.20338903424985977
0.0014999999999999,0.0415406003594398,-0.00030517578125,0.2033400170852157
0.002,0.0415406264364719,0.00030517578125,0.2033565178082819
0.0024999999999999,0.0415407419204711,0.0006103515625,0.2034374446931347
0.003,0.0415407493710517,0.00030517578125,0.20343885107794485
0.0034999999999999,0.0415407046675682,-0.00030517578125,0.2034024888796065
0.004,0.0415407866239547,0.0006103515625,0.2034584100820429
0.0044999999999999,0.0415406376123428,0.0006103515625,0.20334628892822024
0.005,0.0415406450629234,0.0,0.20334926913482884
0.0054999999999999,0.0415408499538898,0.00030517578125,0.20349506823646435
0.006,0.0415408499538898,0.0006103515625,0.20349016195262293
0.0064999999999999,0.0415408127009868,0.00091552734375,0.20345848104393494
0.007,0.0415402948856353,0.001220703125,0.20308032492254502
0.0074999999999999,0.0415401309728622,0.0006103515625,0.20296725311695563
0.008,0.0415392741560936,0.00030517578125,0.2023611997990871
0.0084999999999999,0.0415375903248786,0.0006103515625,0.20118656738830812
0.009,0.0415348932147026,0.00030517578125,0.19933411942787455
0.0094999999999999,0.0415297113358974,0.0006103515625,0.19580580021331487
0.01,0.0415231585502624,0.0006103515625,0.19148522774114177
0.0104999999999999,0.0415138304233551,0.0006103515625,0.1854924489473033
0.011,0.0415021143853664,0.0,0.17827091574159437
0.0114999999999999,0.0414883308112621,0.0006103515625,0.17023944523989298
0.012,0.0414725318551063,0.0,0.16165018721401644
0.0124999999999999,0.0414550453424453,0.00091552734375,0.15297994458449748
0.013,0.041436169296503,0.0006103515625,0.14469152037035768
0.0134999999999999,0.0414162501692771,0.00030517578125,0.13726991127634725
0.014,0.0413953401148319,0.0006103515625,0.1309522839681583
0.0144999999999999,0.0413743294775486,0.00091552734375,0.1262026884286821
0.015,0.041352592408657,0.0,0.12235939637872967
0.0154999999999999,0.0413309596478939,0.00030517578125,0.11946601284417167
0.016,0.041309505701065,0.00091552734375,0.11711111338966974
0.0164999999999999,0.0412880852818489,0.00091552734375,0.11496646905853304
0.017,0.0412665121257305,0.0,0.11285537999455776
0.0174999999999999,0.0412454716861248,0.0006103515625,0.11102798128331151
0.018,0.0412242859601974,0.00091552734375,0.10910096530523627
0.0184999999999999,0.0412034206092357,-0.00030517578125,0.107307691405426
0.019,0.0411827154457569,0.00030517578125,0.10553940639096943
0.0194999999999999,0.0411618500947952,0.0006103515625,0.103673125117194
0.02,0.0411409884691238,0.0,0.1018220847002667
0.0204999999999999,0.041120059788227,0.0006103515625,0.0999596869018291
0.021,0.0410992465913295,0.00030517578125,0.0981638362184826
0.0214999999999999,0.0410779602825641,0.00030517578125,0.09618780018083736
0.022,0.0410572737455368,0.0006103515625,0.09452277020240962
0.0224999999999999,0.0410363264381885,0.00030517578125,0.09271765340345813
0.023,0.0410156212747097,0.00030517578125,0.09102987704727496
0.0234999999999999,0.0409942977130413,0.00030517578125,0.08909058310989137
0.024,0.04097356274724,0.00030517578125,0.08745624928532918
0.0244999999999999,0.0409525521099567,0.0,0.08569039071201401
0.025,0.0409318022429943,0.00030517578125,0.0840493903165709
0.0254999999999999,0.0409109964966774,0.0006103515625,0.08237312752109945
0.026,0.0408899039030075,0.0,0.08060348838363293
0.0264999999999999,0.0408689714968204,0.0006103515625,0.07893481717185859
0.027,0.0408478192985057,0.00030517578125,0.07720431111997347
0.0274999999999999,0.0408269390463829,0.0006103515625,0.07560778372483855
0.028,0.0408061929047107,0.0006103515625,0.07405492850892312
0.0284999999999999,0.0407852455973625,0.0006103515625,0.07241978967774655
0.029,0.0407642163336277,0.00030517578125,0.07077803164378874
0.0294999999999999,0.0407433398067951,0.00030517578125,0.06921981896255287
0.03,0.0407222807407379,0.0006103515625,0.0676032353113415
0.0304999999999999,0.0407012924551963,0.0006103515625,0.06604037597703229
0.031,0.0406803041696548,0.00030517578125,0.0644934200327369
0.0314999999999999,0.0406593233346939,0.0006103515625,0.06296326862359154
0.032,0.0406385324895381,0.0006103515625,0.06151110847152393
0.0324999999999999,0.0406177304685115,0.00030517578125,0.0600517997111277
0.033,0.0405965931713581,0.00030517578125,0.05848426786958685
0.0334999999999999,0.0405757948756217,0.0006103515625,0.057069577469493274
0.034,0.0405546240508556,0.00091552734375,0.05553203903925581
0.0344999999999999,0.0405337996780872,0.00030517578125,0.05414450686644919
0.035,0.040512841194868,0.0006103515625,0.05271333958645189
0.0354999999999999,0.0404917895793914,0.00030517578125,0.05126899899681709
0.036,0.0404708385467529,0.00030517578125,0.04988076914773946
0.0364999999999999,0.0404496826231479,0.0006103515625,0.04844169086828204
0.037,0.0404287576675415,-0.00030517578125,0.047102867366126344
0.0374999999999999,0.0404077991843223,0.00030517578125,0.04575876862761293
0.038,0.0403871797025203,0.00030517578125,0.044527148597663206
0.0384999999999999,0.0403660424053669,0.00030517578125,0.04313082481765209
0.039,0.0403451547026634,0.00030517578125,0.04184192827544967
0.0394999999999999,0.0403243452310562,0.0006103515625,0.040585559373894374
0.04,0.0403035506606102,0.0006103515625,0.039339716980494224
0.0404999999999999,0.0402824580669403,0.00030517578125,0.03801816659166362
0.041,0.0402619242668151,0.00030517578125,0.036880743879694255
0.0414999999999999,0.0402409918606281,0.0006103515625,0.03562498149399012
0.042,0.0402201600372791,0.0006103515625,0.03441836416412045
0.0424999999999999,0.0401993989944458,0.00030517578125,0.03324468048200931
0.043,0.0401785410940647,0.0006103515625,0.032056566286579415
0.0434999999999999,0.0401574485003948,0.00030517578125,0.03082623052526973
0.044,0.0401366874575614,-0.00030517578125,0.029709480678040138
0.0444999999999999,0.0401158183813095,0.00030517578125,0.028573943356723513
0.045,0.0400950461626052,0.00030517578125,0.027477595456219334
0.0454999999999999,0.0400740541517734,0.0006103515625,0.02634052763074594
0.046,0.0400529690086841,0.0006103515625,0.02520533256432249
0.0464999999999999,0.0400321893393993,0.0006103515625,0.02416573790099368
0.047,0.0400114022195339,0.0006103515625,0.023133313634555324
0.0474999999999999,0.0399905443191528,0.0006103515625,0.022096835779300533
0.048,0.0399695262312889,0.00091552734375,0.021042055115993615
0.0484999999999999,0.0399486050009727,0.0,0.02003106018010963
0.049,0.0399275049567222,0.0006103515625,0.01900132150718795
0.0494999999999999,0.0399065427482128,0.0,0.018023360174461437
0.05,0.0398861095309257,0.00091552734375,0.017166603691230655
0.0504999999999999,0.0398651212453842,0.0006103515625,0.016202794617191624
0.051,0.0398440361022949,0.0,0.015243845062280062
0.0514999999999999,0.0398233942687511,0.00030517578125,0.014390642393465203
0.052,0.0398022308945655,0.00030517578125,0.01345552510876186
0.0524999999999999,0.0397813096642494,0.0006103515625,0.012589681109719749
0.053,0.0397605337202549,0.0006103515625,0.011767321196248015
0.0534999999999999,0.0397393777966499,0.00091552734375,0.010900073940399733
0.054,0.0397185161709785,0.0,0.010105727702433434
0.0544999999999999,0.0396973714232444,-0.00030517578125,0.009288312768397438
0.055,0.0396767519414424,0.0006103515625,0.008572538784527796
0.0554999999999999,0.0396556220948696,0.00030517578125,0.007801175098008905
0.056,0.0396347194910049,0.0,0.007087637373066348
0.0564999999999999,0.0396135970950126,0.0,0.006369964175926057
0.057,0.0395929142832756,0.0006103515625,0.005732840243527708
0.0574999999999999,0.0395721085369586,0.0006103515625,0.005102325994895266
0.058,0.0395510606467723,0.0006103515625,0.004471276685996907
0.0584999999999999,0.0395304821431636,0.0,0.0039175312185141505
0.059,0.0395094528794288,0.0006103515625,0.0033465160668995375
0.0595,0.0394883714616298,0.0,0.0028059780145623337
0.06,0.0394675619900226,0.0006103515625,0.002323797858912544
0.0605,0.0394468419253826,0.00091552734375,0.0018826237347335727
0.061,0.0394255332648754,0.00030517578125,0.0014419389102349447
0.0615,0.0394049063324928,0.00030517578125,0.0010870885701701135
0.062,0.0393840037286281,0.00030517578125,0.0007613840791120599
0.0625,0.0393630601465702,0.0006103515625,0.00048491788284679076
0.0629999999999999,0.0393420383334159,-0.00030517578125,0.0002628021937059102
0.0635,0.0393211022019386,0.0006103515625,0.00010569814475919704
0.0639999999999999,0.0393001586198806,0.0006103515625,1.712161316178906e-05
0.0645,0.0392793267965316,0.0006103515625,0.0
0.0649999999999999,0.0392583832144737,0.00030517578125,0.0
0.0655,0.0392376147210598,0.00030517578125,0.0
0.0659999999999999,0.0392164811491966,0.00030517578125,0.0
0.0665,0.0391955003142356,0.0006103515625,0.0
0.0669999999999999,0.0391746461391449,0.0006103515625,0.0
0.0675,0.0391535349190235,0.00091552734375,0.0
0.0679999999999999,0.0391328260302543,0.0006103515625,0.0
0.0685,0.0391118824481964,0.0006103515625,0.0
0.0689999999999999,0.0390909984707832,0.0006103515625,0.0
0.0695,0.0390700250864028,0.0006103515625,0.0
0.0699999999999999,0.0390492938458919,0.0006103515625,0.0
0.0705,0.0390283316373825,0.0006103515625,0.0
0.0709999999999999,0.0390070602297782,-0.00030517578125,0.0
0.0715,0.0389861539006233,0.00030517578125,0.0
0.0719999999999999,0.038964994251728,0.00030517578125,0.0
0.0725,0.0389439463615417,0.0006103515625,0.0
0.0729999999999999,0.0389235317707061,0.0,0.0
0.0735,0.0389025770127773,0.00030517578125,0.0
0.0739999999999999,0.0388816930353641,0.0006103515625,0.0
0.0745,0.0388604886829853,0.00030517578125,0.0
0.0749999999999999,0.0388394556939601,0.0006103515625,0.0
0.0755,0.0388182774186134,0.00091552734375,0.0
0.0759999999999999,0.0387974753975868,0.0006103515625,0.0
0.0765,0.0387768261134624,0.00030517578125,0.0
0.0769999999999999,0.0387560874223709,0.001220703125,0.0
0.0775,0.0387352965772151,0.00091552734375,0.0
0.0779999999999999,0.0387140996754169,0.00030517578125,0.0
0.0785,0.0386935882270336,0.00030517578125,0.0
0.0789999999999999,0.0386724732816219,0.00030517578125,0.0
0.0795,0.0386517234146595,0.0006103515625,0.0
0.0799999999999999,0.0386308990418911,0.00091552734375,0.0
0.0805,0.0386099927127361,0.0006103515625,0.0
0.0809999999999999,0.038589172065258,0.0006103515625,0.0
0.0815,0.0385682247579097,0.0006103515625,0.0
0.0819999999999999,0.0385474413633346,0.00091552734375,0.0
0.0825,0.0385260879993438,0.00030517578125,0.0
0.0829999999999999,0.0385054461658,0.00030517578125,0.0
0.0835,0.038484763354063,0.00091552734375,0.0
0.0839999999999999,0.0384635776281356,0.00091552734375,0.0
0.0845,0.0384425371885299,0.00030517578125,0.0
0.0849999999999999,0.0384218320250511,0.0,0.0
0.0855,0.0384010560810565,0.001220703125,0.0
0.0859999999999999,0.0383799746632576,0.0006103515625,0.0
0.0865,0.0383592769503593,0.0006103515625,0.0
0.0869999999999999,0.0383380763232708,0.0006103515625,0.0
0.0875,0.038317184895277,0.0006103515625,0.0
0.0879999999999999,0.0382964238524436,0.00030517578125,0.0
0.0885,0.0382754355669021,0.0,0.0
0.0889999999999999,0.0382546707987785,0.0006103515625,0.0
0.0895,0.0382335484027862,0.00030517578125,0.0
0.0899999999999999,0.0382127985358238,0.00030517578125,0.0
0.0905,0.0381915681064128,0.0006103515625,0.0
0.0909999999999999,0.0381708182394504,0.00030517578125,0.0
0.0915,0.0381496474146842,0.0006103515625,0.0
0.0919999999999999,0.0381287150084972,0.0006103515625,0.0
0.0925,0.0381080321967601,0.0006103515625,0.0
0.0929999999999999,0.0380869321525096,0.0006103515625,0.0
0.0935,0.0380661226809024,0.00030517578125,0.0
0.0939999999999999,0.0380450598895549,0.00030517578125,0.0
0.0945,0.0380241870880126,0.00030517578125,0.0
0.0949999999999999,0.0380032360553741,0.0006103515625,0.0
0.0955,0.0379825606942176,0.0006103515625,0.0
0.0959999999999999,0.0379616357386112,0.0006103515625,0.0
0.0965,0.0379406511783599,0.0,0.0
0.0969999999999999,0.037919595837593,0.00091552734375,0.0
0.0975,0.0378989987075328,0.0006103515625,0.0
0.0979999999999999,0.0378778055310249,0.0,0.0
0.0985,0.0378571599721908,0.00030517578125,0.0
0.0989999999999999,0.0378359705209732,0.0,0.0
0.0995,0.0378153845667839,0.0,0.0
0.0999999999999999,0.0377941951155662,0.00091552734375,0.0
0.1005,0.0377732962369918,0.00030517578125,0.0
0.1009999999999999,0.0377525240182876,0.00030517578125,0.0
0.1015,0.0377313718199729,0.00030517578125,0.0
0.1019999999999999,0.0377107113599777,0.0006103515625,0.0
0.1025,0.0376901589334011,0.00030517578125,0.0
0.1029999999999999,0.0376694574952125,0.0006103515625,0.0
0.1035,0.0376489534974098,0.0,0.0
0.1039999999999999,0.0376293696463108,0.00091552734375,0.0
0.1045,0.0376106277108192,0.00152587890625,0.0
0.1049999999999999,0.0375930070877075,0.00030517578125,0.0
0.1055,0.0375770330429077,0.00030517578125,0.0
0.1059999999999999,0.0375626422464847,0.0006103515625,0.0
0.1065,0.0375502482056617,0.0,0.0
0.1069999999999999,0.037540640681982,0.00030517578125,0.0
0.1075,0.0375336743891239,0.00091552734375,0.0
0.1079999999999999,0.0375293120741844,0.0,0.0
0.1085,0.0375280566513538,0.0006103515625,0.0
0.1089999999999999,0.0375299155712127,0.0006103515625,0.0
0.1095,0.0375346913933754,0.00030517578125,0.0
0.1099999999999999,0.0375419408082962,0.00091552734375,0.0
0.1105,0.0375523716211319,0.00030517578125,0.0
0.1109999999999999,0.0375649742782115,0.0,0.0
0.1115,0.037579707801342,0.0006103515625,0.0
0.1119999999999999,0.0375961661338806,0.0006103515625,0.0
0.1125,0.0376141630113124,0.0006103515625,0.0
0.1129999999999999,0.037633042782545,0.00091552734375,0.0
0.1135,0.0376529023051261,0.00030517578125,0.0
0.1139999999999999,0.0376735441386699,0.00030517578125,0.0
0.1145,0.0376941785216331,0.0006103515625,0.0
0.1149999999999999,0.0377149656414985,0.00030517578125,0.0
0.1155,0.0377363488078117,0.0006103515625,0.0
0.1159999999999999,0.0377571955323219,0.00030517578125,0.0
0.1165,0.0377781651914119,0.00091552734375,0.0
0.1169999999999999,0.0377988331019878,0.0006103515625,0.0
0.1175,0.0378196649253368,0.00091552734375,0.0
0.118,0.0378405041992664,0.00030517578125,0.0
0.1185,0.0378609970211982,0.00030517578125,0.0
0.119,0.0378823205828666,0.0006103515625,0.0
0.1195,0.0379030629992485,0.0006103515625,0.0
0.12,0.0379237122833728,0.00030517578125,0.0
0.1205,0.0379447266459465,0.00091552734375,0.0
0.121,0.0379657112061977,0.001220703125,0.0
0.1215,0.0379865653812885,0.0006103515625,0.0
0.122,0.0380075424909591,0.0006103515625,0.0
0.1225,0.0380284115672111,0.00091552734375,0.0
0.123,0.0380490683019161,0.0,0.0
0.1235,0.0380702205002307,0.00030517578125,0.0
0.124,0.0380910970270633,0.00091552734375,0.0
0.1245,0.0381122827529907,0.0006103515625,0.0
0.125,0.0381329618394374,0.0006103515625,0.0
0.1254999999999999,0.0381539352238178,0.0006103515625,0.0
0.126,0.0381750091910362,0.00091552734375,0.0
0.1264999999999999,0.0381956920027732,0.0006103515625,0.0
0.127,0.0382169038057327,0.0,0.0
0.1274999999999999,0.0382378138601779,0.0006103515625,0.0
0.128,0.038258671760559,0.00030517578125,0.0
0.1284999999999999,0.0382798612117767,0.00030517578125,0.0004452173104240275
0.129,0.038300659507513,0.00030517578125,0.0018767328011281223
0.1294999999999999,0.0383214727044105,0.0006103515625,0.004257121406465402
0.13,0.0383422747254371,0.00030517578125,0.007524466996464337
0.1304999999999999,0.0383633710443973,0.0006103515625,0.011661713301752316
0.131,0.0383838675916194,0.00030517578125,0.01644348358007018
0.1314999999999999,0.0384049266576767,0.001220703125,0.022025882151071666
0.132,0.0384257584810256,0.0006103515625,0.028191395897683016
0.1324999999999999,0.0384467430412769,0.00091552734375,0.03498603274696135
0.133,0.0384674407541751,0.0006103515625,0.04223855360081641
0.1334999999999999,0.0384885184466838,0.0006103515625,0.05013232596442848
0.134,0.0385093986988067,0.00091552734375,0.05844823374563999
0.1344999999999999,0.0385304279625415,0.00030517578125,0.06729344337399365
0.135,0.0385511815547943,0.00030517578125,0.07647387362734379
0.1354999999999999,0.0385718718171119,0.00030517578125,0.08605828839564612
0.136,0.0385931357741355,0.0006103515625,0.09637768976087877
0.1364999999999999,0.0386136919260025,0.0006103515625,0.10676557342710312
0.137,0.0386350713670253,0.00030517578125,0.11788685942668606
0.1374999999999999,0.0386556759476661,0.00030517578125,0.12867850274552414
0.138,0.0386766865849494,0.00091552734375,0.1395533828101878
0.1384999999999999,0.0386972241103649,0.0006103515625,0.1497790465924983
0.139,0.0387182496488094,0.00030517578125,0.15980336210862006
0.1394999999999999,0.038739163428545,0.00030517578125,0.16916070430377173
0.14,0.0387599915266037,0.0006103515625,0.17782278062580906
0.1404999999999999,0.0387809425592422,0.00030517578125,0.18591190579315361
0.141,0.0388018637895584,0.0006103515625,0.19332303634908612
0.1414999999999999,0.0388227850198745,0.0006103515625,0.2000940884646327
0.142,0.0388438031077384,0.0,0.20631472182923807
0.1424999999999999,0.0388646125793457,0.00030517578125,0.21180078639019195
0.143,0.0388855785131454,0.0006103515625,0.21685645053953992
0.1434999999999999,0.0389063954353332,0.0006103515625,0.22129257033676752
0.144,0.0389273166656494,0.00030517578125,0.2253433059347241
0.1444999999999999,0.0389484651386737,0.0006103515625,0.22912335616995969
0.145,0.0389691367745399,0.0006103515625,0.2321460393852235
0.1454999999999999,0.0389901213347911,0.00091552734375,0.23505971259581931
0.146,0.0390111431479454,0.0006103515625,0.23766896849813643
0.1464999999999999,0.039032083004713,0.00152587890625,0.2399161089496052
0.147,0.039052814245224,0.00030517578125,0.24174620078726555
0.1474999999999999,0.0390738025307655,0.00030517578125,0.24354983070043376
0.148,0.0390947051346302,0.00030517578125,0.2450754706891428
0.1484999999999999,0.0391154065728187,0.00030517578125,0.24626804173720593
0.149,0.0391366519033908,0.00091552734375,0.2477246209126195
0.1494999999999999,0.0391576699912548,0.0006103515625,0.24883957517628594
0.15,0.0391783267259597,0.00030517578125,0.24954957645246392
0.1504999999999999,0.0391991958022117,0.0,0.25033487936421095
0.151,0.0392205528914928,0.0,0.2513961462717864
0.1514999999999999,0.0392412133514881,0.0,0.2518098580698216
0.152,0.0392619296908378,0.00030517578125,0.25221976765256743
0.1524999999999999,0.0392827168107032,0.0006103515625,0.2526414478192168
0.153,0.0393038168549537,0.0006103515625,0.2532579184000806
0.1534999999999999,0.0393247008323669,0.00030517578125,0.25364875265754183
0.154,0.0393457002937793,0.00030517578125,0.2540908132388306
0.1544999999999999,0.0393663942813873,0.00030517578125,0.25426331067805885
0.155,0.039387822151184,0.0006103515625,0.2549846319330905
0.1554999999999999,0.0394081659615039,0.0,0.25481535837295166
0.156,0.0394292436540126,0.0,0.25524161179214117
0.1564999999999999,0.0394502729177475,0.0006103515625,0.2556039293469482
0.157,0.0394708551466465,0.00030517578125,0.2556063372266977
0.1574999999999999,0.0394919775426387,0.00030517578125,0.2560430163919212
0.158,0.0395128577947616,0.0,0.25627080063600927
0.1584999999999999,0.0395337492227554,0.0006103515625,0.2565064249022392
0.159,0.0395543612539768,0.00030517578125,0.2565332948013537
0.1594999999999999,0.0395755991339683,0.0006103515625,0.25706579481525865
0.16,0.039596352726221,0.00030517578125,0.25720084425543377
0.1604999999999999,0.0396173410117626,0.0006103515625,0.25753221748818844
0.161,0.0396379865705966,0.00091552734375,0.25760259066264507
0.1614999999999999,0.0396592393517494,0.0,0.2581671705552842
0.162,0.0396798998117446,0.00030517578125,0.258254702436544
0.1624999999999999,0.0397008769214153,0.00091552734375,0.25861511670241266
0.163,0.0397218167781829,0.00030517578125,0.2589506854327826
0.1634999999999999,0.0397428497672081,0.00030517578125,0.25936542487832087
0.164,0.0397639423608779,0.00030517578125,0.2598237160770213
0.1644999999999999,0.0397844612598419,0.0006103515625,0.25983629675352127
0.165,0.0398059710860252,0.00091552734375,0.26066659370849377
