time [s],Lmtc [m],STIM [ ],Fsee [N]
0.0,0.041540652513504,-0.00030517578125,0.14759893446554906
0.0004999999999999,0.0415408462285995,0.00030517578125,0.14775044688069114
0.001,0.0415405891835689,0.00030517578125,0.14754743972637988
0.0014999999999999,0.0415406934916973,0.0006103515625,0.14763015241165697
0.002,0.0415403731167316,0.00030517578125,0.14738074388431943
0.0024999999999999,0.0415407307446002,0.0006103515625,0.14766502959393918
0.003,0.0415406487882137,0.0006103515625,0.14759989950075658
0.0034999999999999,0.0415406636893749,0.00030517578125,0.14761147914625192
0.004,0.0415407940745353,0.0006103515625,0.14771319610484168
0.0044999999999999,0.0415405333042144,0.0,0.14750765193508852
0.005,0.0415407940745353,0.00030517578125,0.14771318886440196
0.0054999999999999,0.0415406972169876,0.0006103515625,0.1476357329841647
0.006,0.0415406636893749,0.00030517578125,0.14760897869229198
0.0064999999999999,0.0415405333042144,0.00030517578125,0.14750750553177674
0.007,0.0415404886007308,0.0,0.1474755813743152
0.0074999999999999,0.0415397584438324,0.0006103515625,0.14691401853878566
0.008,0.0415386818349361,0.00030517578125,0.14610264946301074
0.0084999999999999,0.0415366403758525,0.0006103515625,0.14457822722317784
0.009,0.0415326543152332,0.0,0.1416270916496199
0.0094999999999999,0.041528332978487,0.0006103515625,0.13854984131966505
0.01,0.0415224730968475,0.0,0.13446804938362383
0.0104999999999999,0.0415162406861782,0.0006103515625,0.1303194047986913
0.011,0.0415091142058372,-0.00030517578125,0.12574976501091523
0.0114999999999999,0.0415019355714321,0.00030517578125,0.12140530035651544
0.012,0.0414938814938068,0.0,0.11671836484925405
0.0124999999999999,0.0414862558245658,0.00030517578125,0.11262157879991673
0.013,0.0414784960448741,0.0006103515625,0.10870548579663841
0.0134999999999999,0.0414704531431198,0.00091552734375,0.1048754260928042
0.014,0.0414623133838176,0.0006103515625,0.10125972582496852
0.0144999999999999,0.0414547175168991,0.00030517578125,0.0982519228081883
0.015,0.0414469987154006,0.0006103515625,0.09539233929616522
0.0154999999999999,0.0414396040141582,0.0006103515625,0.09294645017882575
0.016,0.0414319783449173,0.00091552734375,0.09054811678164496
0.0164999999999999,0.04142402485013,0.00030517578125,0.08814424238817675
0.017,0.0414164066314697,0.00030517578125,0.08612687913943377
0.0174999999999999,0.041408784687519,0.00030517578125,0.08426399627622849
0.018,0.0414009131491184,0.00030517578125,0.08240335321815834
0.0184999999999999,0.0413933657109737,0.0006103515625,0.0808683346655996
0.019,0.0413857251405715,0.0,0.0793929434602144
0.0194999999999999,0.0413781590759754,0.00030517578125,0.07806434218691732
0.02,0.0413700938224792,0.0006103515625,0.07655504506535844
0.0204999999999999,0.0413627736270427,0.0,0.07555506816065867
0.021,0.0413551777601242,0.00030517578125,0.07446055674161225
0.0214999999999999,0.0413478389382362,0.0006103515625,0.07356542346698132
0.022,0.0413399748504161,0.0006103515625,0.07243433245052842
0.0224999999999999,0.0413324981927871,0.00030517578125,0.07157191869998301
0.023,0.0413248613476753,0.00030517578125,0.07066210127279426
0.0234999999999999,0.0413172617554664,0.00091552734375,0.06981227666538568
0.024,0.0413097068667411,0.0006103515625,0.06901905804148932
0.0244999999999999,0.0413019992411136,-0.0006103515625,0.06817495828622666
0.025,0.0412945970892906,0.0,0.06751817331441001
0.0254999999999999,0.0412868037819862,0.0,0.0666756396776503
0.026,0.0412794165313243,0.00030517578125,0.06606879670040951
0.0264999999999999,0.0412715896964073,0.0006103515625,0.06524875171716943
0.027,0.0412640012800693,0.00030517578125,0.06457663047240882
0.0274999999999999,0.0412563197314739,0.0006103515625,0.06387098395049516
0.028,0.0412489622831344,0.0,0.06334090907330059
0.0284999999999999,0.0412413105368614,0.00091552734375,0.06266453261886389
0.029,0.0412337221205234,0.0006103515625,0.06203270294369664
0.0294999999999999,0.0412262827157974,0.0006103515625,0.06148157310755691
0.03,0.041218739002943,0.00030517578125,0.060880337395112116
0.0304999999999999,0.0412108413875103,0.0,0.06011582061525567
0.031,0.0412034131586551,0.0006103515625,0.059599158216916664
0.0314999999999999,0.0411958023905754,0.00030517578125,0.058992781085529106
0.032,0.0411882922053337,-0.00030517578125,0.058440977899725244
0.0324999999999999,0.0411805920302867,0.00030517578125,0.05780130731641635
0.033,0.0411731414496898,0.0006103515625,0.057289542274428104
0.0334999999999999,0.0411655530333519,0.0006103515625,0.05671122002812487
0.034,0.0411580502986907,0.00091552734375,0.05617770351412774
0.0344999999999999,0.0411503352224826,0.00030517578125,0.05554667345695513
0.035,0.0411430560052394,0.00030517578125,0.05512690429084242
0.0354999999999999,0.041135337203741,0.00030517578125,0.05449597931502163
0.036,0.0411276705563068,0.00030517578125,0.053900732318419214
0.0364999999999999,0.0411203391849994,0.00030517578125,0.053465033095488466
0.037,0.0411127507686615,0.00030517578125,0.05290538795768006
0.0374999999999999,0.0411050841212272,0.00030517578125,0.05231584933817565
0.038,0.0410976745188236,0.00091552734375,0.05184942348908007
0.0384999999999999,0.0410901606082916,0.00030517578125,0.051332825662083914
0.039,0.0410826168954372,0.0006103515625,0.05080465378973492
0.0394999999999999,0.0410749875009059,0.00030517578125,0.05024219995508938
0.04,0.0410672761499881,0.00030517578125,0.04965083091874114
0.0404999999999999,0.0410597547888755,0.0006103515625,0.04915163654991324
0.041,0.0410523377358913,0.00030517578125,0.04869839404235865
0.0414999999999999,0.0410446003079414,0.00030517578125,0.04810402118695121
0.042,0.0410370752215385,0.00030517578125,0.047611658774276
0.0424999999999999,0.0410294122993946,0.00030517578125,0.04706166730135082
0.043,0.0410218201577663,0.00030517578125,0.04654873422952037
0.0434999999999999,0.0410142727196216,0.0006103515625,0.046058135217966006
0.044,0.0410067178308963,0.0006103515625,0.04556607029901476
0.0444999999999999,0.0409990660846233,0.0,0.045035581420276145
0.045,0.0409916751086711,0.00091552734375,0.04461941943123931
0.0454999999999999,0.0409843884408474,0.0006103515625,0.04424215826014695
0.046,0.0409764237701892,0.0006103515625,0.04357822983442477
0.0464999999999999,0.0409689247608184,0.00091552734375,0.043124001125503617
0.047,0.040961530059576,0.0006103515625,0.04271200275915454
0.0474999999999999,0.0409540757536888,0.00030517578125,0.04227239342032888
0.048,0.0409463606774807,0.00091552734375,0.0417270477435342
0.0484999999999999,0.0409387685358524,0.0006103515625,0.041239844776092174
0.049,0.040931586176157,0.00091552734375,0.040919843782730364
0.0494999999999999,0.0409237034618854,0.00030517578125,0.040312271983916605
0.05,0.0409157872200012,0.00030517578125,0.039707798146587356
0.0504999999999999,0.0409083254635334,0.0006103515625,0.03929608947923418
0.051,0.040900819003582,0.00030517578125,0.038865040967195716
0.0514999999999999,0.0408933199942112,0.0006103515625,0.03843699616249703
0.052,0.0408858433365821,0.00030517578125,0.03801772013507096
0.0524999999999999,0.0408779121935367,0.0,0.03742460489805294
0.053,0.040870513767004,0.00030517578125,0.0370494945942304
0.0534999999999999,0.0408631078898906,0.00030517578125,0.03666783874261474
0.054,0.0408553965389728,0.00030517578125,0.036168531027642774
0.0544999999999999,0.0408479906618595,0.0,0.03579136153719798
0.055,0.0408401004970073,0.0006103515625,0.035231736873312144
0.0554999999999999,0.0408326722681522,0.0006103515625,0.034855983745099364
0.056,0.0408250018954277,0.0006103515625,0.03438909322310747
0.0564999999999999,0.04081741720438,0.0,0.03395927629251151
0.057,0.0408098697662353,0.00030517578125,0.03354582886675792
0.0574999999999999,0.0408022068440914,0.0006103515625,0.03309269440188905
0.058,0.0407944992184639,0.00030517578125,0.03262900544497628
0.0584999999999999,0.0407872274518013,0.00030517578125,0.03232665886942408
0.059,0.0407794043421745,0.0006103515625,0.03182246448579767
0.0595,0.0407719053328037,0.0006103515625,0.031442286283905094
0.06,0.040764432400465,0.00030517578125,0.031071304447524543
0.0605,0.0407570004463195,0.00030517578125,0.03071445415211967
0.061,0.0407490879297256,0.00030517578125,0.030190722218610824
0.0615,0.0407416075468063,0.0006103515625,0.029827581326372452
0.062,0.0407340191304683,0.00091552734375,0.029427389664280053
0.0625,0.0407265461981296,0.00030517578125,0.029069361094368265
0.0629999999999999,0.040718737989664,0.00030517578125,0.02859860320748655
0.0635,0.0407115183770656,0.0006103515625,0.02833316233616762
0.0639999999999999,0.0407038703560829,0.00091552734375,0.027918473317374314
0.0645,0.0406962744891643,0.0,0.02752625445308956
0.0649999999999999,0.0406885519623756,0.0006103515625,0.027096192119953195
0.0655,0.0406809747219085,0.0,0.02672006483263875
0.0659999999999999,0.040673267096281,0.0006103515625,0.026304591666768434
0.0665,0.0406657941639423,0.0006103515625,0.025969971188982827
0.0669999999999999,0.0406584069132804,0.0006103515625,0.025662411604537114
0.0675,0.0406506098806858,0.00030517578125,0.0252233894298389
0.0679999999999999,0.0406432934105396,0.00091552734375,0.024943568680936064
0.0685,0.0406356453895568,0.00030517578125,0.024556963011535492
0.0689999999999999,0.0406278856098651,0.00030517578125,0.024140653524976192
0.0695,0.0406203530728817,0.00091552734375,0.023801334432183976
0.0699999999999999,0.0406126715242862,0.00030517578125,0.023418193983798324
0.0705,0.0406054072082042,0.00091552734375,0.023166373971910736
0.0709999999999999,0.040597628802061,0.0006103515625,0.022755469615519462
0.0715,0.0405901446938514,0.00030517578125,0.022440015001750867
0.0719999999999999,0.0405823998153209,0.0,0.022048061917064456
0.0725,0.0405751354992389,0.00091552734375,0.02180384550562048
0.0729999999999999,0.0405673086643219,0.0006103515625,0.02139136591864766
0.0735,0.0405597388744354,0.0006103515625,0.021061750312039374
0.0739999999999999,0.0405521169304847,0.0006103515625,0.020719719635979898
0.0745,0.0405442714691162,0.0,0.0203177588271008
0.0749999999999999,0.0405368544161319,0.0006103515625,0.0200449349350042
0.0755,0.0405292585492134,0.0006103515625,0.01972098381750615
0.0759999999999999,0.0405218601226806,0.00030517578125,0.019454862702753734
0.0765,0.0405139923095703,0.0006103515625,0.019058179078403775
0.0769999999999999,0.0405068770051002,0.00091552734375,0.01887600025898799
0.0775,0.0404988974332809,0.001220703125,0.018452761942867223
0.0779999999999999,0.0404913201928138,0.0006103515625,0.018148741152755825
0.0785,0.0404835194349288,0.00030517578125,0.0177875314789041
0.0789999999999999,0.0404761508107185,0.0006103515625,0.017547302367450456
0.0795,0.0404687114059925,0.0,0.017287135734965577
0.0799999999999999,0.0404608249664306,0.0006103515625,0.016910678580441048
0.0805,0.0404532961547374,0.00030517578125,0.016634700670595286
0.0809999999999999,0.0404457114636898,0.00091552734375,0.016345970635084268
0.0815,0.0404381714761257,0.00091552734375,0.016071217454166047
0.0819999999999999,0.0404304973781108,0.0006103515625,0.015764615680618592
0.0825,0.0404230579733848,0.00030517578125,0.015520698966461742
0.0829999999999999,0.0404153056442737,0.0,0.015199659806003293
0.0835,0.0404078066349029,0.0006103515625,0.01494603198954544
0.0839999999999999,0.0404004082083702,0.0006103515625,0.014718018419675965
0.0845,0.0403926745057106,0.00030517578125,0.01440913069711282
0.0849999999999999,0.0403850935399532,0.00091552734375,0.014141916188573307
0.0855,0.0403773188591003,0.00030517578125,0.013831586866791357
0.0859999999999999,0.0403700619935989,0.0,0.013647967310683311
0.0865,0.0403623953461647,0.00091552734375,0.013367040769890098
0.0869999999999999,0.0403548330068588,0.00091552734375,0.01311417702464967
0.0875,0.0403472334146499,0.0006103515625,0.012855240259173301
0.0879999999999999,0.0403398238122463,0.0006103515625,0.012642133253931502
0.0885,0.0403321236371994,0.0006103515625,0.012364445259646332
0.0889999999999999,0.0403246693313121,0.0006103515625,0.012145679871714504
0.0895,0.0403170548379421,0.00091552734375,0.011892843252764884
0.0899999999999999,0.0403095334768295,0.0006103515625,0.011663521190970463
0.0905,0.0403021536767482,0.0006103515625,0.011466650526910599
0.0909999999999999,0.0402944460511207,0.0006103515625,0.011200198410877882
0.0915,0.0402871221303939,0.0,0.011019226641541053
0.0919999999999999,0.040279421955347,0.0006103515625,0.010759310825969513
0.0925,0.040271833539009,0.0,0.010527060145968815
0.0929999999999999,0.0402642674744129,0.00030517578125,0.010302414857879192
0.0935,0.0402565971016883,0.0006103515625,0.010059456320587178
0.0939999999999999,0.0402490906417369,0.00030517578125,0.009853239156193487
0.0945,0.0402414835989475,0.00091552734375,0.009629027216731496
0.0949999999999999,0.0402342565357685,0.0006103515625,0.009482297731035486
0.0955,0.0402264632284641,0.0006103515625,0.009224732772403146
0.0959999999999999,0.0402190312743186,0.0,0.00904183714935729
0.0965,0.0402113310992717,0.00030517578125,0.008809410914796275
0.0969999999999999,0.0402038246393203,0.00030517578125,0.0086175135503612
0.0975,0.040196307003498,0.0,0.008425610004705692
0.0979999999999999,0.0401886664330959,0.0,0.008213452703071505
0.0985,0.0401810519397258,0.00030517578125,0.00800956331773718
0.0989999999999999,0.0401735119521617,0.0006103515625,0.007822177942100602
0.0995,0.0401661433279514,0.0006103515625,0.007667409035149728
0.0999999999999999,0.0401584729552269,0.0006103515625,0.007460702769361185
0.1005,0.0401508584618568,0.00030517578125,0.007267491597391871
0.1009999999999999,0.0401431396603584,0.00030517578125,0.0070598026316274825
0.1015,0.0401356071233749,0.0006103515625,0.006887462525114667
0.1019999999999999,0.0401281118392944,0.0006103515625,0.006723563328459523
0.1025,0.0401207134127616,0.00091552734375,0.006577466766747252
0.1029999999999999,0.0401130393147468,0.0006103515625,0.0063879222614183434
0.1035,0.040105540305376,0.0006103515625,0.0062299733569058284
0.1039999999999999,0.0400979965925216,0.00091552734375,0.006067031807140113
0.1045,0.0400905385613441,0.00091552734375,0.005919915853447156
0.1049999999999999,0.0400825925171375,-0.00030517578125,0.005699856020380829
0.1055,0.0400752387940883,0.00030517578125,0.005575073081569643
0.1059999999999999,0.0400676690042018,0.00091552734375,0.005418900900764498
0.1065,0.0400601103901863,0.0,0.005267075238831467
0.1069999999999999,0.0400521494448185,0.00091552734375,0.0050597772153312594
0.1075,0.0400451608002185,0.00030517578125,0.004996631943692806
0.1079999999999999,0.0400371551513671,0.00091552734375,0.004788538130988769
0.1085,0.0400293953716754,0.00030517578125,0.004620687359779837
0.1089999999999999,0.0400222390890121,0.00030517578125,0.004538820190428768
0.1095,0.0400142967700958,0.00030517578125,0.004351025595300763
0.1099999999999999,0.0400069616734981,0.00030517578125,0.004248666287007267
0.1105,0.039999321103096,0.0,0.004107394485349873
0.1109999999999999,0.0399918816983699,0.001220703125,0.003994878057612266
0.1115,0.0399841219186782,0.00091552734375,0.0038436110267317802
0.1119999999999999,0.0399767346680164,0.00030517578125,0.003742314200487504
0.1125,0.0399693064391613,0.00030517578125,0.0036372631022426895
0.1129999999999999,0.0399615839123725,0.0006103515625,0.003498395877102706
0.1135,0.0399539805948734,0.0006103515625,0.0033771712261301892
0.1139999999999999,0.039946261793375,0.0006103515625,0.0032452926022848833
0.1145,0.0399389155209064,0.0006103515625,0.0031591774223109943
0.1149999999999999,0.0399313606321811,0.0,0.0030506965740136833
0.1155,0.0399237461388111,0.0006103515625,0.0029380226937519857
0.1159999999999999,0.0399159714579582,0.0,0.0028108087707909377
0.1165,0.0399089008569717,0.00030517578125,0.002761914652970937
0.1169999999999999,0.0399009399116039,-0.00030517578125,0.0026195292470723402
0.1175,0.0398935861885547,0.00030517578125,0.002544011717915531
0.118,0.0398859605193138,0.0,0.0024422924906809477
0.1185,0.0398783162236213,0.0006103515625,0.002341440332844149
0.119,0.0398707240819931,0.0006103515625,0.002248383998551989
0.1195,0.0398632548749446,0.0006103515625,0.0021693661354167545
0.12,0.0398557633161544,0.0006103515625,0.0020900202542167186
0.1205,0.0398478843271732,0.00030517578125,0.0019773820430862765
0.121,0.0398406386375427,0.0006103515625,0.0019249262627100863
0.1215,0.039833016693592,0.0006103515625,0.001840256032008462
0.122,0.0398252680897712,0.0006103515625,0.001747324016264402
0.1225,0.0398178957402706,0.00030517578125,0.0016888742646364984
0.123,0.039810124784708,0.0006103515625,0.001599105359717767
0.1235,0.0398025177419185,0.0,0.001525578913332452
0.124,0.0397948324680328,0.00091552734375,0.0014483012525576145
0.1245,0.0397874638438224,0.0,0.0013976696534297283
0.125,0.0397799797356128,0.00091552734375,0.0013396331261592293
0.1254999999999999,0.0397722348570823,0.00030517578125,0.0012643470118970815
0.126,0.0397647470235824,0.0006103515625,0.0012100989363009482
0.1264999999999999,0.0397573038935661,0.001220703125,0.0011606119983013966
0.127,0.0397495850920677,0.0,0.001093954217660558
0.1274999999999999,0.039741825312376,0.00030517578125,0.0010272753941328982
0.128,0.0397345311939716,0.0,0.0009930674333637017
0.1284999999999999,0.0397268682718277,0.00030517578125,0.0009366509519960296
0.129,0.0397191680967807,0.00091552734375,0.0008802654686292587
0.1294999999999999,0.0397115051746368,0.00030517578125,0.000828458036831451
0.13,0.0397043116390705,0.00091552734375,0.0008057540722979867
0.1304999999999999,0.0396965034306049,0.0006103515625,0.0007489698492936084
0.131,0.0396889112889766,0.00091552734375,0.0007065494169966388
0.1314999999999999,0.0396816059947013,0.00030517578125,0.0006810119917320873
0.132,0.0396735668182373,0.0006103515625,0.0006184511210102885
0.1324999999999999,0.0396658591926097,0.0006103515625,0.0005756274663375297
0.133,0.0396584942936897,0.0006103515625,0.0005510496987002208
0.1334999999999999,0.0396510027348995,0.00091552734375,0.0005213351839092359
0.134,0.0396433882415294,-0.00030517578125,0.0004871736346807903
0.1344999999999999,0.0396355986595153,0.0,0.0004468932140463354
0.135,0.0396282374858856,0.0006103515625,0.0004265630190283714
0.1354999999999999,0.0396203473210334,0.00030517578125,0.0003853937696362939
0.136,0.0396130308508873,0.0,0.00036878578308977196
0.1364999999999999,0.0396055318415164,0.00030517578125,0.00034571618913890444
0.137,0.0395978838205337,0.00030517578125,0.0003181185715655924
0.1374999999999999,0.0395901128649711,0.0006103515625,0.00028759446182113473
0.138,0.0395828038454055,0.0006103515625,0.0002742200178632271
0.1384999999999999,0.0395750999450683,0.0006103515625,0.00024838159912102855
0.139,0.039567794650793,0.00030517578125,0.00023633928426358168
0.1394999999999999,0.0395600385963916,0.0006103515625,0.0002110829713057454
0.14,0.0395524576306343,0.00030517578125,0.0001923297804250252
0.1404999999999999,0.0395449995994567,0.00030517578125,0.0001778894528081623
0.141,0.0395374447107315,0.00091552734375,0.0001615653807164661
0.1414999999999999,0.0395297370851039,0.00091552734375,0.0001423603763209352
0.142,0.0395223870873451,0.00030517578125,0.00013275196076798597
0.1424999999999999,0.0395145453512668,0.0,0.00011260250261200675
0.143,0.0395071916282177,0.00030517578125,0.0001041279928653162
0.1434999999999999,0.0394996590912342,0.00030517578125,9.247039760950263e-05
0.144,0.0394921861588954,0.0006103515625,8.265392301822252e-05
0.1444999999999999,0.0394844934344291,0.00030517578125,6.962218765601965e-05
0.145,0.0394767224788665,0.00091552734375,5.6539022895042946e-05
0.1454999999999999,0.0394691713154315,0.00030517578125,4.791506673803751e-05
0.146,0.0394617319107055,0.0006103515625,4.148743844323661e-05
0.1464999999999999,0.0394541174173355,0.0006103515625,3.3434280119389305e-05
0.147,0.0394466556608676,0.0006103515625,2.789322815754583e-05
0.1474999999999999,0.039438858628273,0.0006103515625,1.9700290231020967e-05
0.148,0.0394315235316753,0.0,1.6566462047609703e-05
0.1484999999999999,0.0394239053130149,0.00030517578125,1.1646174534461187e-05
