time [s],Lmtc [m],STIM [ ],Fsee [N]
0.0,0.041540790349245,0.00030517578125,0.14761039016983224
0.0004999999999999,0.0415408462285995,0.0006103515625,0.14765408682918124
0.001,0.0415408089756965,0.00030517578125,0.14762430179980643
0.0014999999999999,0.0415407493710517,0.001220703125,0.14757766862509067
0.002,0.0415406711399555,0.0006103515625,0.14751797512158693
0.0024999999999999,0.0415407828986644,0.00030517578125,0.14760739690470395
0.003,0.041540939360857,0.0006103515625,0.14772971202214355
0.0034999999999999,0.0415408164262771,0.00091552734375,0.1476317068418771
0.004,0.0415410250425338,0.00030517578125,0.14779448927653976
0.0044999999999999,0.0415407977998256,0.0006103515625,0.14761403424033892
0.005,0.0415407344698905,0.00030517578125,0.1475648221450744
0.0054999999999999,0.041540652513504,0.0,0.14750259700048346
0.006,0.0415406264364719,0.0,0.14748560105666414
0.0064999999999999,0.0415407083928585,0.0006103515625,0.14755280832554096
0.007,0.0415408127009868,0.0,0.14763550222824703
0.0074999999999999,0.0415405854582786,0.00030517578125,0.1474585702378957
0.008,0.0415402799844741,0.0006103515625,0.14722635424144473
0.0084999999999999,0.041539292782545,0.00030517578125,0.14647513556237754
0.009,0.0415368936955928,0.00030517578125,0.14466156429120466
0.0094999999999999,0.0415335148572921,0.00030517578125,0.14217051541912262
0.01,0.0415281504392623,0.00030517578125,0.1382857856070808
0.0104999999999999,0.0415212996304035,0.0006103515625,0.13348961284564478
0.011,0.0415124371647834,0.0006103515625,0.12749697377516045
0.0114999999999999,0.0415027849376201,0.0006103515625,0.12132019542890174
0.012,0.0414912402629852,0.00030517578125,0.11427007622220799
0.0124999999999999,0.0414792895317077,0.0006103515625,0.1074965251108706
0.013,0.041466549038887,0.00030517578125,0.1007866069536399
0.0134999999999999,0.041453581303358,0.0006103515625,0.09455444757581294
0.014,0.0414401814341545,0.0006103515625,0.0886847490335288
0.0144999999999999,0.041426733136177,0.0006103515625,0.08341713222865874
0.015,0.0414139665663242,0.00030517578125,0.07912378434675245
0.0154999999999999,0.041400272399187,0.0006103515625,0.074835623171478
0.016,0.0413876250386238,0.0006103515625,0.07162338286707154
0.0164999999999999,0.0413745567202568,0.0006103515625,0.06858378476846003
0.017,0.0413616076111793,0.0,0.0659743863797589
0.0174999999999999,0.0413487590849399,0.0,0.06371998740481323
0.018,0.0413357838988304,0.0006103515625,0.061654185257126015
0.0184999999999999,0.0413228943943977,0.00030517578125,0.05984399315534315
0.019,0.0413099527359008,0.0006103515625,0.05817881810216379
0.0194999999999999,0.0412971973419189,0.00030517578125,0.05673696533376713
0.02,0.0412846058607101,0.00091552734375,0.0554653883677812
0.0204999999999999,0.041271761059761,0.0,0.05414781177780674
0.021,0.0412589721381664,0.00091552734375,0.05292740328504276
0.0214999999999999,0.0412461534142494,0.00030517578125,0.05174876685823295
0.022,0.0412331782281398,0.0006103515625,0.050550125967979274
0.0224999999999999,0.041220411658287,0.0006103515625,0.04948842912826031
0.023,0.0412076786160469,0.00091552734375,0.048465571957103805
0.0234999999999999,0.0411947555840015,0.00030517578125,0.047383588862824774
0.024,0.0411819480359554,0.0006103515625,0.0463790628870441
0.0244999999999999,0.0411695837974548,0.00030517578125,0.04557021463113176
0.025,0.0411566458642482,0.0006103515625,0.04451573664059774
0.0254999999999999,0.0411438457667827,0.00030517578125,0.043545082479792885
0.026,0.041131068021059,0.00091552734375,0.042598431078275455
0.0264999999999999,0.0411183759570121,0.0006103515625,0.04169749250468653
0.027,0.0411054268479347,0.00030517578125,0.04070371295065802
0.0274999999999999,0.041092649102211,0.0006103515625,0.03979708213314421
0.028,0.0410802252590656,0.0006103515625,0.03903264372328996
0.0284999999999999,0.0410674698650836,0.00030517578125,0.038132564898412304
0.029,0.0410546287894248,0.00030517578125,0.037212539128527816
0.0294999999999999,0.0410419031977653,0.0006103515625,0.03635036274741792
0.03,0.0410292223095893,0.0006103515625,0.03551209380202845
0.0304999999999999,0.0410162545740604,0.0,0.03457742837947174
0.031,0.0410035029053688,0.00030517578125,0.033741058123767625
0.0314999999999999,0.0409910045564174,0.0006103515625,0.032999800005061385
0.032,0.0409783907234668,0.0006103515625,0.03221289209554389
0.0324999999999999,0.0409654900431633,0.00030517578125,0.03133191042676081
0.033,0.0409527495503425,0.0,0.03052375765557368
0.0334999999999999,0.0409399941563606,0.0,0.029719362395697464
0.034,0.040927305817604,0.00030517578125,0.02894652365315006
0.0344999999999999,0.0409145802259445,-0.00030517578125,0.02816768241697142
0.035,0.0409019589424133,0.00030517578125,0.027430571562997944
0.0354999999999999,0.0408890470862388,0.00091552734375,0.026605586965407997
0.036,0.0408764332532882,0.0006103515625,0.025891096777386734
0.0364999999999999,0.0408639423549175,0.00030517578125,0.025217446547795494
0.037,0.0408509857952594,0.00091552734375,0.024401324870715908
0.0374999999999999,0.0408381894230842,0.0,0.02365340397014164
0.038,0.0408252775669097,0.00030517578125,0.0228832110043124
0.0384999999999999,0.0408127307891845,0.0,0.02223426592122526
0.039,0.0407999493181705,0.00030517578125,0.02151860615927071
0.0394999999999999,0.0407872572541236,0.0,0.02083893938864088
0.04,0.0407744646072387,0.0,0.020138604856021623
0.0404999999999999,0.040761575102806,-0.00030517578125,0.01942320001875575
0.041,0.0407488346099853,0.0006103515625,0.018762038079803842
0.0414999999999999,0.0407361462712287,0.0,0.018122628425659332
0.042,0.040723655372858,0.00091552734375,0.01754101954765266
0.0424999999999999,0.0407106950879097,0.00030517578125,0.016840907072672436
0.043,0.0406979918479919,0.00030517578125,0.016222180240005424
0.0434999999999999,0.0406850427389144,0.0006103515625,0.015551067647323235
0.044,0.0406725034117698,0.00030517578125,0.014994124563629094
0.0444999999999999,0.0406597219407558,0.00030517578125,0.014382883357160516
0.045,0.0406468287110328,0.00091552734375,0.013756563696745766
0.0454999999999999,0.0406339205801487,0.00030517578125,0.01314055506739378
0.046,0.0406213961541652,0.00091552734375,0.012623089346196704
0.0464999999999999,0.0406086705625057,0.001220703125,0.012065068061478766
0.047,0.0405958369374275,0.0006103515625,0.011493338150018783
0.0474999999999999,0.0405829548835754,0.0006103515625,0.010923619809808018
0.048,0.0405704416334629,0.00030517578125,0.010441481269859517
0.0484999999999999,0.0405576825141906,0.00030517578125,0.009914994361143344
0.049,0.0405447147786617,0.00030517578125,0.009359077330428914
0.0494999999999999,0.0405319854617118,0.00091552734375,0.008863114218124232
0.05,0.0405192151665687,0.0006103515625,0.008369372152132046
0.0504999999999999,0.040506538003683,0.00091552734375,0.007902965790223536
0.051,0.0404935143887996,0.00091552734375,0.007386184807169187
0.0514999999999999,0.0404808148741722,0.0006103515625,0.006939661454667661
0.052,0.0404679179191589,0.0006103515625,0.0064710214124955295
0.0524999999999999,0.0404549278318882,0.0006103515625,0.006001789848691728
0.053,0.0404422581195831,0.00030517578125,0.005595978913590723
0.0534999999999999,0.0404297299683094,0.0006103515625,0.005220132219310687
0.054,0.0404167063534259,0.00030517578125,0.004782960835472081
0.0544999999999999,0.0404037646949291,0.00091552734375,0.004373593114820829
0.055,0.0403911881148815,0.0,0.004025986618203582
0.0554999999999999,0.040378738194704,0.0006103515625,0.003703247458940609
0.056,0.0403659977018833,0.0,0.0033546938130624908
0.0564999999999999,0.0403531491756439,0.0,0.0030076327323063133
0.057,0.0403405725955963,0.0006103515625,0.0027045874874077635
0.0574999999999999,0.040327675640583,0.0006103515625,0.002381665673852729
0.058,0.0403151363134384,0.0006103515625,0.0021091158274050416
0.0584999999999999,0.0403023473918437,0.00030517578125,0.0018273396357107582
0.059,0.040289718657732,0.0,0.0015752157548793132
0.0595,0.0402764938771724,0.0,0.0012943785000166165
0.06,0.0402641780674457,0.00030517578125,0.001098883234398466
0.0605,0.0402515232563018,0.0006103515625,0.0008949512494155903
0.061,0.0402386635541915,0.0006103515625,0.0006978774913727449
0.0615,0.0402256846427917,0.0006103515625,0.0005171735265669162
0.062,0.0402131751179695,0.0006103515625,0.000379655270633592
0.0625,0.0402003489434719,0.00030517578125,0.00025079857105013225
0.0629999999999999,0.0401874966919422,0.00091552734375,0.00014623705368281575
0.0635,0.0401750653982162,0.00091552734375,7.578626549378086e-05
0.0639999999999999,0.0401622280478477,0.00030517578125,2.325777314608581e-05
0.0645,0.0401497818529605,0.00030517578125,1.5795620040554878e-06
0.0649999999999999,0.040136843919754,-0.00030517578125,0.0
0.0655,0.0401243194937706,0.00030517578125,0.0
0.0659999999999999,0.0401113517582416,0.00030517578125,0.0
0.0665,0.0400985591113567,0.0006103515625,0.0
0.0669999999999999,0.0400858409702777,0.00030517578125,0.0
0.0675,0.0400729998946189,0.0006103515625,0.0
0.0679999999999999,0.0400604456663131,0.0006103515625,0.0
0.0685,0.0400474220514297,0.001220703125,0.0
0.0689999999999999,0.0400349982082843,0.001220703125,0.0
0.0695,0.0400219708681106,0.0006103515625,0.0
0.0699999999999999,0.0400092750787735,0.00030517578125,0.0
0.0705,0.0399966575205326,0.0006103515625,0.0
0.0709999999999999,0.0399838387966156,0.0,0.0
0.0715,0.0399712286889553,0.0,0.0
0.0719999999999999,0.0399582833051681,0.00030517578125,0.0
0.0725,0.0399459600448608,0.0006103515625,0.0
0.0729999999999999,0.0399330742657184,0.0006103515625,0.0
0.0735,0.0399201698601245,0.00030517578125,0.0
0.0739999999999999,0.0399075038731098,0.0,0.0
0.0745,0.0398945398628711,0.0006103515625,0.0
0.0749999999999999,0.0398821905255317,0.00030517578125,0.0
0.0755,0.0398694686591625,0.0006103515625,0.0
0.0759999999999999,0.0398565679788589,0.0,0.0
0.0765,0.0398436710238456,0.0,0.0
0.0769999999999999,0.0398309081792831,-0.00030517578125,0.0
0.0775,0.0398183651268482,0.0006103515625,0.0
0.0779999999999999,0.0398054346442222,0.00030517578125,0.0
0.0785,0.0397929362952709,0.0006103515625,0.0
0.0789999999999999,0.0397799424827098,0.0006103515625,0.0
0.0795,0.0397672019898891,0.00091552734375,0.0
0.0799999999999999,0.0397545769810676,0.00030517578125,0.0
0.0805,0.0397420190274715,0.00030517578125,0.0
0.0809999999999999,0.039729006588459,0.0,0.0
0.0815,0.0397165790200233,0.0006103515625,0.0
0.0819999999999999,0.0397034138441085,0.00030517578125,0.0
0.0825,0.0396910086274147,0.00091552734375,0.0
0.0829999999999999,0.0396776869893074,0.0006103515625,0.0
0.0835,0.0396652705967426,0.00091552734375,0.0
0.0839999999999999,0.0396521985530853,0.001220703125,0.0
0.0845,0.0396393798291683,0.0006103515625,0.0
0.0849999999999999,0.0396268181502819,0.00091552734375,0.0
0.0855,0.0396137423813343,0.00030517578125,0.0
0.0859999999999999,0.0396015122532844,0.0006103515625,0.0
0.0865,0.0395883508026599,0.0006103515625,0.0
0.0869999999999999,0.0395760051906108,0.00030517578125,0.0
0.0875,0.039563201367855,0.00030517578125,0.0
0.0879999999999999,0.0395504049956798,0.0006103515625,0.0
0.0885,0.0395376719534397,0.0006103515625,0.0
0.0889999999999999,0.0395248644053936,-0.00030517578125,0.0
0.0895,0.0395123586058616,0.00030517578125,0.0
0.0899999999999999,0.0394994802772998,0.0006103515625,0.0
0.0905,0.0394867435097694,0.0006103515625,0.0
0.0909999999999999,0.0394741855561733,0.00091552734375,0.0
0.0915,0.0394612476229667,0.00030517578125,0.0
0.0919999999999999,0.039448507130146,0.00030517578125,0.0
0.0925,0.0394358411431312,0.00091552734375,0.0
0.0929999999999999,0.0394229590892791,0.00030517578125,0.0
0.0935,0.0394104607403278,0.00030517578125,0.0
0.0939999999999999,0.0393978133797645,0.00030517578125,0.0
0.0945,0.0393848270177841,0.00030517578125,0.0
0.0949999999999999,0.0393721535801887,0.0006103515625,0.0
0.0955,0.0393596813082695,0.00030517578125,0.0
0.0959999999999999,0.0393468812108039,0.00030517578125,0.0
0.0965,0.0393336080014705,0.0006103515625,0.0
0.0969999999999999,0.0393209531903266,0.0006103515625,0.0
0.0975,0.0393083356320858,0.0006103515625,0.0
0.0979999999999999,0.0392958857119083,0.0006103515625,0.0
0.0985,0.0392827093601226,0.0006103515625,0.0
0.0989999999999999,0.0392701476812362,0.0,0.0
0.0995,0.0392574444413185,0.0006103515625,0.0
0.0999999999999999,0.0392446592450141,0.00091552734375,0.0
0.1005,0.0392320491373539,0.0006103515625,0.0
0.1009999999999999,0.0392191931605339,0.0,0.0
0.1015,0.0392060801386833,0.00030517578125,0.0
0.1019999999999999,0.0391937606036663,0.0,0.0
0.1025,0.0391807369887828,0.00091552734375,0.0
0.1029999999999999,0.0391681119799613,0.00030517578125,0.0
0.1035,0.0391555055975914,0.00030517578125,0.0
0.1039999999999999,0.0391429625451564,0.00091552734375,0.0
0.1045,0.0391300469636917,0.00030517578125,0.0
0.1049999999999999,0.039117332547903,0.0006103515625,0.0
0.1055,0.0391045957803726,0.0006103515625,0.0
0.1059999999999999,0.0390916392207145,0.0006103515625,0.0
0.1065,0.0390789695084095,0.0006103515625,0.0
0.1069999999999999,0.0390662476420402,0.00030517578125,0.0
0.1075,0.039053414016962,0.0,0.0
0.1079999999999999,0.0390408188104629,0.0006103515625,0.0
0.1085,0.039027914404869,0.0006103515625,0.0
0.1089999999999999,0.0390151403844356,0.00091552734375,0.0
0.1095,0.0390024073421955,0.00030517578125,0.0
0.1099999999999999,0.0389894619584083,0.00030517578125,0.0
0.1105,0.0389769226312637,0.0006103515625,0.0
0.1109999999999999,0.0389641635119915,0.00091552734375,0.0
0.1115,0.0389514304697513,0.00030517578125,0.0
0.1119999999999999,0.0389384999871254,-0.00030517578125,0.0
0.1125,0.0389258451759815,0.00030517578125,0.0
0.1129999999999999,0.0389133170247077,0.00030517578125,0.0
0.1135,0.038899939507246,0.00030517578125,0.0
0.1139999999999999,0.0388874411582946,0.0006103515625,0.0
0.1145,0.0388744287192821,0.00091552734375,0.0
0.1149999999999999,0.0388618782162666,0.0006103515625,0.0
0.1155,0.0388490930199623,0.00030517578125,0.0
0.1159999999999999,0.0388363972306251,0.0006103515625,0.0
0.1165,0.0388239026069641,0.001220703125,0.0
0.1169999999999999,0.0388110429048538,0.00030517578125,0.0
0.1175,0.0387984216213226,0.00030517578125,0.0
0.118,0.0387856513261795,0.00030517578125,0.0
0.1185,0.0387728549540042,0.00091552734375,0.0
0.119,0.0387601777911186,0.00030517578125,0.0
0.1195,0.0387473590672016,0.001220703125,0.0
0.12,0.0387347266077995,0.00030517578125,0.0
0.1205,0.0387220121920108,0.0006103515625,0.0
0.121,0.0387093983590602,0.00030517578125,0.0
0.1215,0.03869653865695,0.0006103515625,0.0
0.122,0.0386838652193546,0.00030517578125,0.0
0.1225,0.0386708453297615,0.001220703125,0.0
0.123,0.0386582687497139,0.00091552734375,0.0
0.1235,0.0386457107961177,0.00030517578125,0.0
0.124,0.0386328026652336,0.0006103515625,0.0
0.1245,0.0386201627552509,0.0006103515625,0.0
0.125,0.0386073887348175,0.00030517578125,0.0
0.1254999999999999,0.0385948978364467,0.0,0.0
0.126,0.0385819301009178,0.00030517578125,0.0
0.1264999999999999,0.0385694801807403,0.0006103515625,0.0
0.127,0.0385563783347606,0.00030517578125,0.0
0.1274999999999999,0.0385436862707138,0.0,0.0
0.128,0.0385308563709259,0.00030517578125,0.0
0.1284999999999999,0.0385180786252021,0.00091552734375,0.0
0.129,0.0385055840015411,0.00091552734375,0.0
0.1294999999999999,0.0384927615523338,0.0,0.0
0.13,0.038480021059513,0.0,0.0
0.1304999999999999,0.038467202335596,0.0006103515625,0.0
0.131,0.0384544990956783,0.00091552734375,0.0
0.1314999999999999,0.0384414047002792,0.0006103515625,0.0
0.132,0.0384289287030696,0.0006103515625,0.0
0.1324999999999999,0.0384159870445728,0.0006103515625,0.0
0.133,0.0384033434092998,0.0,0.0
0.1334999999999999,0.0383907444775104,0.0,0.0
0.134,0.0383781567215919,0.00030517578125,0.0
0.1344999999999999,0.0383652262389659,0.0,0.0
0.135,0.0383524671196937,0.0006103515625,0.0
0.1354999999999999,0.0383399873971939,-0.00030517578125,0.0
0.136,0.0383271276950836,0.0006103515625,0.0
0.1364999999999999,0.0383142866194248,0.00030517578125,0.0
0.137,0.0383014045655727,0.0,0.0
0.1374999999999999,0.0382887348532676,0.00091552734375,0.0
0.138,0.0382761098444461,0.0006103515625,0.0
0.1384999999999999,0.0382633022964,0.00030517578125,0.0
0.139,0.0382503159344196,0.0006103515625,0.0
0.1394999999999999,0.0382377691566944,0.0006103515625,0.0
0.14,0.0382249094545841,0.00091552734375,0.0
0.1404999999999999,0.0382120721042156,0.00030517578125,0.0
0.141,0.0381995365023613,0.00091552734375,0.0
0.1414999999999999,0.0381865836679935,0.00091552734375,0.0
0.142,0.038173820823431,0.0006103515625,0.0
0.1424999999999999,0.0381612889468669,0.0,0.0
0.143,0.0381485074758529,0.00091552734375,0.0
0.1434999999999999,0.0381357781589031,0.0006103515625,0.0
0.144,0.0381229445338249,0.0,0.0
0.1444999999999999,0.0381103605031967,0.0,0.0
0.145,0.0380971729755401,0.0006103515625,0.0
0.1454999999999999,0.0380843318998813,0.0006103515625,0.0
0.146,0.0380718186497688,0.0006103515625,0.0
0.1464999999999999,0.0380588993430137,0.00030517578125,0.0
0.147,0.0380463637411594,0.00030517578125,0.0
0.1474999999999999,0.0380334556102752,0.0,0.0
0.148,0.0380210056900978,0.0006103515625,0.0
0.1484999999999999,0.0380077734589576,0.00091552734375,0.0
0.149,0.0379953607916832,0.0006103515625,0.0
0.1494999999999999,0.0379824303090572,0.00091552734375,0.0
0.15,0.0379698388278484,0.0006103515625,0.0
0.1504999999999999,0.0379569306969642,0.0006103515625,0.0
0.151,0.0379442386329174,0.00091552734375,0.0
0.1514999999999999,0.037931703031063,0.00030517578125,0.0
0.152,0.0379188433289527,0.00030517578125,0.0
0.1524999999999999,0.0379060618579387,-0.00030517578125,0.0
0.153,0.0378932505846023,0.0006103515625,0.0
0.1534999999999999,0.037880640476942,0.00030517578125,0.0
0.154,0.0378680005669593,0.0006103515625,0.0
0.1544999999999999,0.037855289876461,0.0006103515625,0.0
0.155,0.0378423519432544,0.0006103515625,0.0
0.1554999999999999,0.0378297679126262,0.00030517578125,0.0
0.156,0.0378168746829032,0.0006103515625,0.0
0.1564999999999999,0.0378044322133064,0.00030517578125,0.0
0.157,0.0377916172146797,0.0006103515625,0.0
0.1574999999999999,0.0377787686884403,0.00091552734375,0.0
0.158,0.0377659872174263,0.0006103515625,0.0
0.1584999999999999,0.0377532728016376,0.0,0.0
0.159,0.0377404764294624,0.00091552734375,0.0
0.1594999999999999,0.0377275720238685,0.00030517578125,0.0
0.16,0.0377149693667888,0.00091552734375,0.0
0.1604999999999999,0.0377021506428718,0.00091552734375,0.0
0.161,0.0376894399523735,0.00091552734375,0.0
0.1614999999999999,0.0376767292618751,0.001220703125,0.0
0.162,0.0376640297472476,0.0006103515625,0.0
0.1624999999999999,0.0376509949564933,0.00030517578125,0.0
0.163,0.0376382991671562,0.0006103515625,0.0
0.1634999999999999,0.0376255959272384,0.00030517578125,0.0
0.164,0.0376129373908042,0.00030517578125,0.0
0.1644999999999999,0.0376001074910163,0.0006103515625,0.0
0.165,0.0375875681638717,0.00030517578125,0.0
0.1654999999999999,0.0375753231346607,0.00091552734375,0.0
0.166,0.037563893944025,0.00030517578125,0.0
0.1664999999999999,0.0375530645251274,0.0,0.0
0.167,0.0375438630580902,0.00091552734375,0.0
0.1674999999999999,0.0375363565981388,0.00030517578125,0.0
0.168,0.037530843168497,0.0,0.0
0.1684999999999999,0.0375280603766441,0.00091552734375,0.0
0.169,0.0375281944870948,0.00091552734375,0.0
0.1694999999999999,0.0375312529504299,0.0006103515625,0.0
0.17,0.0375378690659999,0.00091552734375,0.0
0.1704999999999999,0.0375473089516162,-0.00030517578125,0.0
0.171,0.0375596806406974,0.0006103515625,0.0
0.1714999999999999,0.0375757478177547,0.0006103515625,0.0
0.172,0.0375947281718254,0.00030517578125,0.0
0.1725,0.0376166403293609,0.001220703125,0.0
0.173,0.0376412831246852,0.00030517578125,0.0
0.1735,0.0376691222190856,0.00030517578125,0.0
0.174,0.0376997999846935,0.0006103515625,0.0
0.1745,0.0377335511147975,-0.00030517578125,0.0
0.175,0.0377695374190807,0.0006103515625,0.0
0.1755,0.0378087423741817,0.0006103515625,0.0
0.176,0.0378504879772663,0.00091552734375,0.0
0.1765,0.0378943309187889,0.00030517578125,0.0
0.177,0.0379415117204189,0.00030517578125,0.0
0.1775,0.0379903502762317,0.0006103515625,0.0
