time [s],Lmtc [m],STIM [ ],Fsee [N]
0.0,0.0435486659407615,0.00091552734375,0.4122915810993937
0.0004999999999999,0.0435486510396003,0.00030517578125,0.4122725218191891
0.001,0.0435486659407615,0.0,0.41229275732588677
0.0014999999999999,0.0435488000512123,0.0006103515625,0.41246606123399693
0.002,0.043548546731472,0.00030517578125,0.41213389257052385
0.0024999999999999,0.043548610061407,0.0006103515625,0.4122263473487506
0.003,0.0435483939945697,0.00030517578125,0.41195697752162075
0.0034999999999999,0.0435486063361167,0.0,0.4122507635031244
0.004,0.0435485728085041,0.00030517578125,0.4122105389924719
0.0044999999999999,0.0435485243797302,0.0006103515625,0.4121544684421984
0.005,0.0435484945774078,0.00030517578125,0.41212609523968535
0.0054999999999999,0.0435485802590847,0.0006103515625,0.41224561949991373
0.006,0.0435487776994705,0.0006103515625,0.412501835814963
0.0064999999999999,0.0435486063361167,0.00091552734375,0.41227262388988223
0.007,0.0435484275221824,0.0,0.4120465672636062
0.0074999999999999,0.0435480400919914,0.0,0.41157459075990654
0.008,0.0435471013188362,0.0006103515625,0.4104385735758102
0.0084999999999999,0.0435447506606578,0.00030517578125,0.4076187320920958
0.009,0.0435407236218452,0.0,0.40293889412705214
0.0094999999999999,0.0435346774756908,0.0006103515625,0.3962353910246807
0.01,0.0435263514518737,0.0006103515625,0.38755357266752644
0.0104999999999999,0.0435156114399433,0.00091552734375,0.3773470926066645
0.011,0.0435023307800293,0.00030517578125,0.36639542807511605
0.0114999999999999,0.0434872172772884,0.0006103515625,0.3566797698257212
0.012,0.0434701777994632,0.0006103515625,0.3488150753303095
0.0124999999999999,0.0434517562389373,0.0006103515625,0.3429670727116689
0.013,0.0434323251247406,-0.00030517578125,0.3381761015035897
0.0134999999999999,0.0434116385877132,0.00030517578125,0.33345649722766724
0.014,0.0433905869722366,0.00030517578125,0.3291967960373547
0.0144999999999999,0.0433694086968898,0.0006103515625,0.32512174274090166
0.015,0.0433483980596065,0.00030517578125,0.3212618679514995
0.0154999999999999,0.043326485902071,0.0,0.31683103234533105
0.016,0.0433058701455593,0.00030517578125,0.3135381731638112
0.0164999999999999,0.0432848036289215,0.0006103515625,0.309532727735083
0.017,0.0432636328041553,0.0006103515625,0.30560132144134333
0.0174999999999999,0.0432429984211921,0.00030517578125,0.30209589670576276
0.018,0.043222352862358,0.00091552734375,0.29840501663441293
0.0184999999999999,0.0432018376886844,0.00030517578125,0.2948041041544422
0.019,0.0431811660528183,0.00030517578125,0.2910519509262284
0.0194999999999999,0.0431609265506267,0.00030517578125,0.28767941103801054
0.02,0.0431402549147605,0.0,0.2838508492926804
0.0204999999999999,0.0431198924779892,0.00030517578125,0.2804234077789726
0.021,0.0430988781154155,0.00091552734375,0.2764638941990444
0.0214999999999999,0.0430789068341255,0.00091552734375,0.27346072764261736
0.022,0.043058443814516,0.0006103515625,0.26977778302694444
0.0224999999999999,0.0430380254983902,0.00030517578125,0.26628727683299086
0.023,0.0430175513029098,0.00091552734375,0.2627790128890926
0.0234999999999999,0.0429968982934951,0.00030517578125,0.25921328165772944
0.024,0.0429763905704021,0.0006103515625,0.25581533349273644
0.0244999999999999,0.0429562292993068,0.0006103515625,0.2526233916827804
0.025,0.0429355949163436,0.00030517578125,0.24903131155627273
0.0254999999999999,0.0429150238633155,0.00030517578125,0.24563244726625236
0.026,0.042894460260868,0.00030517578125,0.2422727081129999
0.0264999999999999,0.0428741611540317,0.00030517578125,0.23908648380367295
0.027,0.0428536906838417,0.0006103515625,0.23573680284064433
0.0274999999999999,0.0428331680595874,0.00030517578125,0.232409812017635
0.028,0.0428125150501728,0.00030517578125,0.2290573335881044
0.0284999999999999,0.0427916571497917,0.00030517578125,0.22561759504680343
0.029,0.0427716523408889,0.00030517578125,0.22285401179788905
0.0294999999999999,0.0427511371672153,0.0006103515625,0.21950418735840058
0.03,0.0427305400371551,0.0006103515625,0.21622921067332523
0.0304999999999999,0.0427098982036113,0.00030517578125,0.21300764889184495
0.031,0.0426896288990974,0.0006103515625,0.2100615170743862
0.0314999999999999,0.04266944155097,0.00091552734375,0.20706905600675765
0.032,0.0426488332450389,0.0006103515625,0.2037883066653135
0.0324999999999999,0.0426283553242683,0.0006103515625,0.20072230444896377
0.033,0.0426080226898193,0.0006103515625,0.19775773776224442
0.0334999999999999,0.0425876043736934,0.00030517578125,0.19472443807207374
0.034,0.0425673462450504,0.00030517578125,0.19181430843454503
0.0344999999999999,0.0425468459725379,0.00091552734375,0.18873589100643495
0.035,0.0425265952944755,0.00091552734375,0.1858827547970854
0.0354999999999999,0.042505782097578,0.00030517578125,0.18266151695083305
0.036,0.042485699057579,0.0006103515625,0.18004171224814164
0.0364999999999999,0.0424651429057121,0.00030517578125,0.1770021943790025
0.037,0.0424450114369392,0.0006103515625,0.1743081388598404
0.0374999999999999,0.0424243211746215,0.0006103515625,0.1712207293607603
0.038,0.0424038879573345,0.0006103515625,0.16843605698668304
0.0384999999999999,0.0423833318054676,0.00030517578125,0.16557325244078566
0.039,0.0423629023134708,0.0,0.16282625846345478
0.0394999999999999,0.0423426292836666,0.00030517578125,0.16015657178513262
0.04,0.0423222556710243,0.0,0.1574015297113906
0.0404999999999999,0.0423016883432865,0.00030517578125,0.15457454216897806
0.041,0.0422813668847084,0.00030517578125,0.15195238061217053
0.0414999999999999,0.042260892689228,0.0006103515625,0.14922466359272052
0.042,0.0422404371201992,0.0006103515625,0.14654937659854397
0.0424999999999999,0.0422200448811054,0.00030517578125,0.14393741616806027
0.043,0.0421998016536235,0.0,0.14141649628442807
0.0434999999999999,0.042179200798273,0.0,0.13866684445391086
0.044,0.042158767580986,0.0006103515625,0.13610981956315873
0.0444999999999999,0.0421384572982788,0.0006103515625,0.13362910579345813
0.045,0.0421178601682186,0.0006103515625,0.13097485939060546
0.0454999999999999,0.0420975871384143,0.00091552734375,0.12857889162262215
0.046,0.042077001184225,0.0,0.12597396534620003
0.0464999999999999,0.0420567132532596,0.0,0.12360770693807335
0.047,0.0420361347496509,0.0,0.12105739242594372
0.0474999999999999,0.0420152954757213,0.0,0.11843622491969334
0.048,0.0419951789081096,0.00030517578125,0.11629557342903402
0.0484999999999999,0.0419749431312084,0.00030517578125,0.11398137896621881
0.049,0.0419543012976646,0.00030517578125,0.11145263552901472
0.0494999999999999,0.0419340208172798,0.00030517578125,0.10921154283715562
0.05,0.0419136993587017,0.00030517578125,0.10692116074950048
0.0504999999999999,0.0418931730091571,0.00030517578125,0.10453609005415652
0.051,0.0418728254735469,0.0,0.10230220771991963
0.0514999999999999,0.041852630674839,0.00030517578125,0.10014586134478597
0.052,0.0418320707976818,0.0,0.09779058207490732
0.0524999999999999,0.0418115071952343,0.00091552734375,0.09550939612932373
0.053,0.0417911000549793,0.0006103515625,0.09335141989842659
0.0534999999999999,0.0417709164321422,0.00091552734375,0.09130360806400993
0.054,0.0417503342032432,0.00030517578125,0.08903770177115825
0.0544999999999999,0.0417303219437599,0.0,0.08711553700085085
0.055,0.0417098961770534,0.00030517578125,0.0849343552041332
0.0554999999999999,0.041689321398735,0.00030517578125,0.08274208718936182
0.056,0.0416689403355121,0.00091552734375,0.08070440403573448
0.0564999999999999,0.0416482985019683,0.00091552734375,0.07855571801180385
0.057,0.0416279770433902,0.0006103515625,0.07661639649696268
0.0574999999999999,0.0416074842214584,-0.00030517578125,0.07458778913598192
0.058,0.0415869131684303,0.0,0.07255393411392301
0.0584999999999999,0.0415669120848178,0.00030517578125,0.0708177098917096
0.059,0.0415461063385009,0.0006103515625,0.0686621867893234
0.0595,0.0415259562432765,0.0006103515625,0.066897583690319
0.06,0.0415055118501186,0.0006103515625,0.06497159780288991
0.0605,0.04148506000638,0.0006103515625,0.06307881655782119
0.061,0.0414646156132221,0.0,0.0612196868130836
0.0615,0.0414441116154193,-0.00030517578125,0.05936065566665887
0.062,0.0414237380027771,0.0006103515625,0.05758775997488134
0.0625,0.041403442621231,0.00030517578125,0.05585604252786313
0.0629999999999999,0.0413831360638141,0.0006103515625,0.05412516247720395
0.0635,0.0413625910878181,-0.00030517578125,0.052313313713631335
0.0639999999999999,0.0413422286510467,0.0,0.05062089133600111
0.0645,0.0413215495645999,0.0006103515625,0.048818147241364414
0.0649999999999999,0.0413014963269233,0.00091552734375,0.04731161851213408
0.0655,0.0412805750966072,0.0006103515625,0.045448648608047884
0.0659999999999999,0.0412602946162223,0.0006103515625,0.04391143284102488
0.0665,0.0412400774657726,0.00091552734375,0.04239031539150141
0.0669999999999999,0.0412193574011325,0.0006103515625,0.04068491677284308
0.0675,0.0411990880966186,0.00030517578125,0.039197473465732394
0.0679999999999999,0.0411785431206226,0.00030517578125,0.037614483000198734
0.0685,0.0411580391228199,0.0006103515625,0.03608066362679899
0.0689999999999999,0.0411376804113388,0.00030517578125,0.03462306902413869
0.0695,0.0411170497536659,0.00030517578125,0.033086589266143225
0.0699999999999999,0.0410972014069557,0.00091552734375,0.03184400425425076
0.0705,0.0410765446722507,0.0006103515625,0.03031453059924289
0.0709999999999999,0.0410561077296733,0.0,0.028906658776969678
0.0715,0.0410357154905796,0.00030517578125,0.027537518225529713
0.0719999999999999,0.0410154350101947,0.0006103515625,0.02622385855049457
0.0725,0.0409947969019413,0.00091552734375,0.024820936061306604
0.0729999999999999,0.0409745275974273,0.00030517578125,0.02356578636209263
0.0735,0.0409542582929134,0.0006103515625,0.022322751738969786
0.0739999999999999,0.040933895856142,0.00030517578125,0.02107092883322606
0.0745,0.0409133955836296,0.0,0.01980865140588337
0.0749999999999999,0.0408927723765373,0.00030517578125,0.018548630493096734
0.0755,0.0408725105226039,0.00091552734375,0.017416501244130734
0.0759999999999999,0.0408521331846714,0.00030517578125,0.016272151697985147
0.0765,0.0408317930996418,0.00030517578125,0.015162036663978671
0.0769999999999999,0.0408111959695816,0.00030517578125,0.014018426205456489
0.0775,0.0407906807959079,0.00030517578125,0.01293106568099584
0.0779999999999999,0.0407700464129447,0.00030517578125,0.011851292919720867
0.0785,0.0407499521970748,0.0006103515625,0.01091688227836398
0.0789999999999999,0.0407294854521751,0.00091552734375,0.009925027928035046
0.0795,0.0407089665532112,0.00030517578125,0.008957319643893746
0.0799999999999999,0.0406888350844383,0.00091552734375,0.008093625908582501
0.0805,0.0406682193279266,0.0006103515625,0.00717316707756657
0.0809999999999999,0.0406477265059948,0.00030517578125,0.006315583358915048
0.0815,0.040627084672451,0.0006103515625,0.005476019796811089
0.0819999999999999,0.0406069010496139,0.0006103515625,0.004744693672213934
0.0825,0.0405862666666507,0.0006103515625,0.003990543803392666
0.0829999999999999,0.0405659638345241,0.00030517578125,0.003325346614659215
0.0835,0.040545642375946,0.0006103515625,0.0027022477052941777
0.0839999999999999,0.0405250824987888,0.00091552734375,0.002106175184701136
0.0845,0.0405046679079532,0.0006103515625,0.0015821740933671688
0.0849999999999999,0.0404841639101505,0.00030517578125,0.001113712713859729
0.0855,0.0404635667800903,0.0,0.0007107646884500125
0.0859999999999999,0.0404427796602249,-0.00030517578125,0.0003810121907413991
0.0865,0.0404227189719677,0.00030517578125,0.00016529670564284564
0.0869999999999999,0.0404022708535194,0.00091552734375,3.0254555188717054e-05
0.0875,0.0403816103935241,0.00091552734375,0.0
0.0879999999999999,0.0403614602982997,0.00091552734375,0.0
0.0885,0.0403408966958522,0.0006103515625,0.0
0.0889999999999999,0.040320910513401,0.001220703125,0.0
0.0895,0.040300253778696,0.0006103515625,0.0
0.0899999999999999,0.0402801670134067,0.00091552734375,0.0
0.0905,0.0402597188949584,0.00030517578125,0.0
0.0909999999999999,0.0402392335236072,0.00030517578125,0.0
0.0915,0.0402187705039978,0.00030517578125,0.0
0.0919999999999999,0.0401986129581928,0.0,0.0
0.0925,0.0401779934763908,0.00030517578125,0.0
0.0929999999999999,0.0401575230062007,0.00030517578125,0.0
0.0935,0.0401374921202659,0.00091552734375,0.0
0.0939999999999999,0.0401167087256908,0.00030517578125,0.0
0.0945,0.0400965698063373,0.0006103515625,0.0
0.0949999999999999,0.0400760434567928,0.00030517578125,0.0
0.0955,0.0400558225810527,0.0006103515625,0.0
0.0959999999999999,0.0400351621210575,0.0006103515625,0.0
0.0965,0.0400148145854473,0.00091552734375,0.0
0.0969999999999999,0.0399945229291915,0.0006103515625,0.0
0.0975,0.0399737954139709,0.0,0.0
0.0979999999999999,0.039953876286745,0.00030517578125,0.0
0.0985,0.0399332232773304,0.00030517578125,0.0
0.0989999999999999,0.0399128794670105,0.0006103515625,0.0
0.0995,0.0398924835026264,0.0,0.0
0.0999999999999999,0.0398721173405647,0.0,0.0
0.1005,0.0398515723645687,0.0006103515625,0.0
0.1009999999999999,0.0398314744234085,0.00030517578125,0.0
0.1015,0.039811048656702,0.00030517578125,0.0
0.1019999999999999,0.0397905297577381,0.0006103515625,0.0
0.1025,0.0397702455520629,0.00091552734375,0.0
0.1029999999999999,0.0397496372461319,0.0006103515625,0.0
0.1035,0.0397292785346508,0.00091552734375,0.0
0.1039999999999999,0.039708949625492,0.0006103515625,0.0
0.1045,0.0396883934736251,0.0006103515625,0.0
0.1049999999999999,0.0396676063537597,0.00030517578125,0.0
0.1055,0.0396473556756973,0.00091552734375,0.0
0.1059999999999999,0.0396270081400871,0.0006103515625,0.0
0.1065,0.039606686681509,0.00030517578125,0.0
0.1069999999999999,0.0395860560238361,0.00030517578125,0.0
0.1075,0.0395657606422901,0.0006103515625,0.0
0.1079999999999999,0.0395451337099075,0.00030517578125,0.0
0.1085,0.0395250879228115,0.0006103515625,0.0
0.1089999999999999,0.0395046807825565,0.00030517578125,0.0
0.1095,0.0394840240478515,0.00030517578125,0.0
0.1099999999999999,0.0394637919962406,0.0,0.0
0.1105,0.039443515241146,0.0006103515625,0.0
0.1109999999999999,0.0394228473305702,0.0006103515625,0.0
0.1115,0.0394024886190891,0.00030517578125,0.0
0.1119999999999999,0.0393820963799953,0.0006103515625,0.0
0.1125,0.0393618829548358,0.001220703125,0.0
0.1129999999999999,0.0393411144614219,0.0006103515625,0.0
0.1135,0.039321057498455,0.00030517578125,0.0
0.1139999999999999,0.03930040076375,0.0006103515625,0.0
0.1145,0.0392799600958824,0.0006103515625,0.0
0.1149999999999999,0.0392596721649169,0.00091552734375,0.0
0.1155,0.0392395071685314,0.0006103515625,0.0
0.1159999999999999,0.0392185114324092,0.001220703125,0.0
0.1165,0.0391983203589916,0.0006103515625,0.0
0.1169999999999999,0.0391781479120254,0.00030517578125,0.0
0.1175,0.0391575284302234,0.0,0.0
0.118,0.0391370877623558,0.00091552734375,0.0
0.1185,0.039116445928812,0.001220703125,0.0
0.119,0.0390964820981025,0.0006103515625,0.0
0.1195,0.0390759110450744,0.0006103515625,0.0
0.12,0.0390555001795291,0.0,0.0
0.1205,0.0390352346003055,0.00030517578125,0.0
0.121,0.0390145368874073,0.0006103515625,0.0
0.1215,0.0389941781759262,0.00091552734375,0.0
0.122,0.0389735549688339,0.0006103515625,0.0
0.1225,0.0389531999826431,0.00091552734375,0.0
0.123,0.0389326065778732,0.0006103515625,0.0
0.1235,0.0389121323823928,0.00030517578125,0.0
0.124,0.0388918444514274,0.00030517578125,0.0
0.1245,0.0388713777065277,0.00091552734375,0.0
0.125,0.0388511568307876,0.00030517578125,0.0
0.1254999999999999,0.0388304851949214,0.00030517578125,0.0
0.126,0.0388100296258926,0.00091552734375,0.0
0.1264999999999999,0.0387895666062831,0.0,0.0
0.127,0.0387694239616394,0.0006103515625,0.0
0.1274999999999999,0.0387488678097724,0.00030517578125,0.0
0.128,0.0387287139892578,0.0006103515625,0.0
0.1284999999999999,0.0387082807719707,0.0006103515625,0.0
0.129,0.0386881418526172,0.0006103515625,0.0
0.1294999999999999,0.0386676490306854,0.0006103515625,0.0
0.13,0.0386473126709461,0.00091552734375,0.0
0.1304999999999999,0.0386268235743045,0.0006103515625,0.0
0.131,0.0386062413454055,0.00030517578125,0.0
0.1314999999999999,0.0385859571397304,0.0006103515625,0.0
0.132,0.038565706461668,0.00091552734375,0.0
0.1324999999999999,0.0385451354086399,0.0006103515625,0.0
0.133,0.0385246276855468,0.00030517578125,0.0
0.1334999999999999,0.0385042876005172,0.0006103515625,0.0
0.134,0.0384837836027145,0.0006103515625,0.0
0.1344999999999999,0.0384635254740715,0.00091552734375,0.0
0.135,0.0384429432451725,0.0006103515625,0.0
0.1354999999999999,0.038422767072916,0.0006103515625,0.0
0.136,0.0384021215140819,0.0018310546875,0.0
0.1364999999999999,0.0383817628026008,0.0006103515625,0.0
0.137,0.0383616276085376,0.00091552734375,0.0
0.1374999999999999,0.0383411794900894,0.00030517578125,0.0
0.138,0.0383205711841583,0.00091552734375,0.0
0.1384999999999999,0.0383003316819667,0.0006103515625,0.0
0.139,0.0382800884544849,0.0006103515625,0.0
0.1394999999999999,0.0382594838738441,0.0006103515625,0.0
0.14,0.038238625973463,0.0006103515625,0.0
0.1404999999999999,0.0382186062633991,0.00030517578125,0.0
0.141,0.038197748363018,0.00091552734375,0.0
0.1414999999999999,0.0381776578724384,0.00091552734375,0.0
0.142,0.0381571017205715,0.00091552734375,0.0
0.1424999999999999,0.0381372161209583,0.0006103515625,0.0
0.143,0.0381162129342556,0.0,0.0
0.1434999999999999,0.0380957908928394,0.0006103515625,0.0
0.144,0.0380753464996814,0.00030517578125,0.0
0.1444999999999999,0.0380549579858779,0.00030517578125,0.0
0.145,0.0380344912409782,0.0006103515625,0.0
0.1454999999999999,0.038014005869627,0.0006103515625,0.0
0.146,0.0379938259720802,0.00030517578125,0.0
0.1464999999999999,0.0379732064902782,0.0006103515625,0.0
0.147,0.0379531793296337,0.0006103515625,0.0
0.1474999999999999,0.0379326418042182,0.00030517578125,0.0
0.148,0.0379122644662857,0.00030517578125,0.0
0.1484999999999999,0.037891935557127,0.0006103515625,0.0
0.149,0.0378713831305503,0.0,0.0
0.1494999999999999,0.0378511436283588,0.00030517578125,0.0
0.15,0.0378305874764919,0.0006103515625,0.0
0.1504999999999999,0.037810206413269,0.0006103515625,0.0
0.151,0.0377897247672081,0.00091552734375,0.0
0.1514999999999999,0.0377690494060516,0.00030517578125,0.0
0.152,0.0377488508820533,0.00091552734375,0.0
0.1524999999999999,0.0377285294234752,0.0006103515625,0.0
0.153,0.0377080403268337,0.0006103515625,0.0
0.1534999999999999,0.0376876145601272,0.0006103515625,0.0
0.154,0.037667416036129,0.00091552734375,0.0
0.1544999999999999,0.0376466289162635,0.0006103515625,0.0
0.155,0.037626527249813,0.0006103515625,0.0
0.1554999999999999,0.0376057513058185,0.0,0.0
0.156,0.0375854782760143,0.00030517578125,0.0
0.1564999999999999,0.0375650040805339,0.0006103515625,0.0
0.157,0.0375446863472461,0.0,0.0
0.1574999999999999,0.0375242456793785,0.0006103515625,0.0
0.158,0.0375035777688026,0.0,0.0
0.1584999999999999,0.0374832153320312,0.00030517578125,0.0
0.159,0.0374630168080329,0.00030517578125,0.0
0.1594999999999999,0.0374423786997795,0.0006103515625,0.0
0.16,0.0374221839010715,0.0006103515625,0.0
0.1604999999999999,0.0374015122652053,0.0006103515625,0.0
0.161,0.0373812355101108,0.00091552734375,0.0
0.1614999999999999,0.0373607724905014,0.0006103515625,0.0
0.162,0.0373402200639247,0.00030517578125,0.0
0.1624999999999999,0.0373195111751556,0.0006103515625,0.0
0.163,0.0372990667819976,0.0006103515625,0.0
0.1634999999999999,0.0372786857187747,0.00030517578125,0.0
0.164,0.0372586734592914,0.0,0.0
0.1644999999999999,0.0372380316257476,0.0006103515625,0.0
0.165,0.0372174754738807,0.0006103515625,0.0
0.1654999999999999,0.0371971763670444,0.00030517578125,0.0
0.166,0.0371770299971103,0.001220703125,0.0
0.1664999999999999,0.0371565856039524,0.00030517578125,0.0
0.167,0.0371357537806034,0.0006103515625,0.0
0.1674999999999999,0.0371157713234424,0.0006103515625,0.0
0.168,0.0370955280959606,-0.00030517578125,0.0
0.1684999999999999,0.037075038999319,0.0006103515625,0.0
0.169,0.0370544083416461,0.001220703125,0.0
0.1694999999999999,0.0370343476533889,0.00030517578125,0.0
0.17,0.0370138511061668,0.00030517578125,0.0
