time [s],Lmtc [m],STIM [ ],Fsee [N]
0.0,0.0455024279654026,0.00030517578125,0.17644513931287958
0.0004999999999999,0.0455023311078548,0.00091552734375,0.17638206321976893
0.001,0.0455019921064376,0.0,0.17616445165445407
0.0014999999999999,0.0455020479857921,0.00030517578125,0.17620796342893605
0.002,0.04550227150321,0.0,0.1763584228684253
0.0024999999999999,0.0455021411180496,0.00091552734375,0.17627597218588317
0.003,0.0455021820962429,0.00030517578125,0.17630664146521519
0.0034999999999999,0.0455024056136608,0.00030517578125,0.17645439581677014
0.004,0.0455021671950817,0.0,0.1762993573076244
0.0044999999999999,0.0455021634697914,0.00030517578125,0.17630041567210158
0.005,0.0455022156238555,0.0006103515625,0.1763375237894385
0.0054999999999999,0.0455024428665638,0.00030517578125,0.1764868596494804
0.006,0.0455021820962429,0.00030517578125,0.1763166272311347
0.0064999999999999,0.0455022491514682,0.0006103515625,0.17636301385105713
0.007,0.0455020144581794,0.0006103515625,0.17621314589201237
0.0074999999999999,0.0455012619495391,0.00091552734375,0.1757346346935413
0.008,0.0454998463392257,0.00030517578125,0.17484458986692056
0.0084999999999999,0.045497391372919,-0.0006103515625,0.17332027391556545
0.009,0.0454931333661079,0.00030517578125,0.17070459058987328
0.0094999999999999,0.0454875491559505,0.0,0.16736461240333628
0.01,0.0454802997410297,0.0006103515625,0.16314487200977834
0.0104999999999999,0.0454711504280567,0.00030517578125,0.1579909676595315
0.011,0.0454612299799919,0.00030517578125,0.15268937556148812
0.0114999999999999,0.045450635254383,0.00030517578125,0.14735762915198417
0.012,0.045439526438713,0.00091552734375,0.14214531530172347
0.0124999999999999,0.045427318662405,0.0006103515625,0.1367827353245268
0.013,0.0454158782958984,0.00030517578125,0.13238640018315806
0.0134999999999999,0.0454039238393306,0.0,0.12822032906802103
0.014,0.0453919433057308,0.00030517578125,0.12458047731115249
0.0144999999999999,0.0453796163201332,0.0,0.12128989526250104
0.015,0.0453680232167243,0.001220703125,0.11887937053843066
0.0154999999999999,0.0453559793531894,0.0,0.11663513716825859
0.016,0.0453439205884933,-0.00030517578125,0.1147543296422519
0.0164999999999999,0.0453319177031517,0.00091552734375,0.11319870410149956
0.017,0.0453204363584518,0.0,0.11211095640429268
0.0174999999999999,0.0453082993626594,0.00030517578125,0.11083190753619296
0.018,0.0452970787882804,0.00091552734375,0.11012654840896528
0.0184999999999999,0.0452853962779045,0.0,0.10921975072305766
0.019,0.045273557305336,0.00030517578125,0.10830093002039069
0.0194999999999999,0.0452620945870876,0.0006103515625,0.10760951471215378
0.02,0.0452504120767116,0.00030517578125,0.10681960697862095
0.0204999999999999,0.0452385954558849,0.0,0.10599539207960511
0.021,0.045227188616991,0.00030517578125,0.10538706048856705
0.0214999999999999,0.0452152304351329,0.0006103515625,0.1045129601426267
0.022,0.0452038720250129,0.00091552734375,0.10395087013191835
0.0224999999999999,0.0451922416687011,0.00030517578125,0.10323638853347847
0.023,0.0451805517077446,0.00030517578125,0.10250318650534469
0.0234999999999999,0.0451692566275596,0.00030517578125,0.10195655849009508
0.024,0.045156966894865,0.0006103515625,0.10094150714057784
0.0244999999999999,0.0451456010341644,0.0006103515625,0.10040945767776618
0.025,0.0451343208551406,-0.00030517578125,0.0998764093543553
0.0254999999999999,0.0451224893331527,0.00030517578125,0.09907103713590805
0.026,0.0451109111309051,0.0006103515625,0.09840834717711373
0.0264999999999999,0.0450994335114955,0.0006103515625,0.09778569421609168
0.027,0.0450879223644733,0.00030517578125,0.09713731951225736
0.0274999999999999,0.0450762137770652,0.00030517578125,0.09640118520414874
0.028,0.0450645759701728,0.0006103515625,0.09571316807514278
0.0284999999999999,0.0450534299015998,0.00030517578125,0.09523999933931229
0.029,0.0450417511165142,0.0,0.09449587069804068
0.0294999999999999,0.0450303107500076,0.00091552734375,0.0938750130069919
0.03,0.0450187288224697,0.0006103515625,0.09318703840271765
0.0304999999999999,0.0450072810053825,0.0006103515625,0.09256605127776159
0.031,0.0449952967464923,0.00030517578125,0.09171340773323225
0.0314999999999999,0.0449837297201156,0.0006103515625,0.09108226308643966
0.032,0.0449723377823829,0.00091552734375,0.09052009726899751
0.0324999999999999,0.0449607893824577,0.0006103515625,0.08987395294231162
0.033,0.0449492745101451,0.0006103515625,0.08924308090523073
0.0334999999999999,0.0449377670884132,0.0006103515625,0.08861365976856962
0.034,0.0449262410402298,-0.00030517578125,0.08797520364823212
0.0344999999999999,0.0449145175516605,0.00030517578125,0.08725688421533628
0.035,0.0449030920863151,0.00030517578125,0.08668062170245419
0.0354999999999999,0.0448914654552936,0.00091552734375,0.08601025025798033
0.036,0.0448798611760139,-0.00030517578125,0.08535878462787709
0.0364999999999999,0.0448685213923454,0.0006103515625,0.08482018306404555
0.037,0.0448569096624851,0.00030517578125,0.08415260007983716
0.0374999999999999,0.0448452271521091,0.0006103515625,0.08346778894406527
0.038,0.0448335856199264,0.0006103515625,0.08281424923753174
0.0384999999999999,0.0448224768042564,0.00030517578125,0.08238253439718682
0.039,0.0448104739189147,0.00030517578125,0.08155307861979284
0.0394999999999999,0.0447990074753761,0.00030517578125,0.08098359531941517
0.04,0.0447878502309322,0.00030517578125,0.08052807318530321
0.0404999999999999,0.0447758957743644,0.0006103515625,0.07972606941963091
0.041,0.0447642244398593,0.00030517578125,0.0790785707060452
0.0414999999999999,0.0447527840733528,0.0006103515625,0.07852989930741548
0.042,0.0447412207722663,0.0006103515625,0.07792141993529006
0.0424999999999999,0.0447295606136322,-0.00030517578125,0.07727709895897733
0.043,0.044718075543642,0.0006103515625,0.07671082069427941
0.0434999999999999,0.044706393033266,-0.00030517578125,0.07606190832773078
0.044,0.0446948260068893,0.00030517578125,0.07546928162406705
0.0444999999999999,0.0446832962334156,0.00030517578125,0.07489082469559721
0.045,0.0446717850863933,0.00030517578125,0.0743172940257594
0.0454999999999999,0.0446602702140808,0.00030517578125,0.0737395227074808
0.046,0.0446488372981548,0.00030517578125,0.07319190886469128
0.0464999999999999,0.0446371212601661,0.0006103515625,0.07253065839051606
0.047,0.0446254387497901,0.0006103515625,0.07189887484518033
0.0474999999999999,0.0446139089763164,0.00030517578125,0.07133489548500914
0.048,0.0446024313569068,0.0006103515625,0.07078807785150582
0.0484999999999999,0.0445907600224018,0.00030517578125,0.0701639771681798
0.049,0.0445790514349937,0.00030517578125,0.06953652064904652
0.0494999999999999,0.0445676781237125,0.00030517578125,0.06904460393851407
0.05,0.0445560924708843,0.00030517578125,0.06845904008136193
0.0504999999999999,0.0445446036756038,0.0,0.0679143470099656
0.051,0.0445326715707778,0.0,0.06720307431457945
0.0514999999999999,0.0445215031504631,0.0006103515625,0.06680035634344246
0.052,0.0445097871124744,0.0,0.06616729274081556
0.0524999999999999,0.0444984398782253,0.00030517578125,0.06568397779728927
0.053,0.0444866716861724,0.00030517578125,0.06503458675860481
0.0534999999999999,0.0444751381874084,0.0,0.06448880243034974
0.054,0.0444635190069675,0.0006103515625,0.06391148687841247
0.0544999999999999,0.0444517061114311,0.00030517578125,0.06327078237522499
0.055,0.0444400459527969,0.0006103515625,0.06270244190939762
0.0554999999999999,0.0444288961589336,0.0006103515625,0.06231955904058538
0.056,0.0444170981645584,0.0,0.06167744218165982
0.0564999999999999,0.0444055646657943,0.00030517578125,0.06114822667832414
0.057,0.0443938784301281,0.0006103515625,0.0605638954329366
0.0574999999999999,0.0443821810185909,0.00030517578125,0.0599839996479855
0.058,0.0443710125982761,0.00091552734375,0.05959720347387877
0.0584999999999999,0.0443589016795158,0.0006103515625,0.05885784514431329
0.059,0.0443475060164928,0.00030517578125,0.05840419565575406
0.0595,0.0443362295627594,0.00030517578125,0.05797861344769928
0.06,0.0443243198096752,0.00030517578125,0.057318250570010956
0.0605,0.0443128570914268,0.00030517578125,0.056834844950055106
0.061,0.0443014726042747,0.0006103515625,0.056371843454997926
0.0615,0.0442899316549301,0.00091552734375,0.05584725989635586
0.062,0.0442781895399093,0.0006103515625,0.055256753292692674
0.0625,0.0442663989961147,0.00030517578125,0.0546629338841948
0.0629999999999999,0.0442553125321865,0.00030517578125,0.054319293135795234
0.0635,0.0442434214055538,0.0,0.05368021707196023
0.0639999999999999,0.0442317947745323,-0.00030517578125,0.0531520250994944
0.0645,0.0442204922437667,0.0006103515625,0.05273430718171851
0.0649999999999999,0.0442090816795825,0.0006103515625,0.052267117751965894
0.0655,0.0441972613334655,0.0006103515625,0.05166122098267126
0.0659999999999999,0.0441857725381851,0.00030517578125,0.051182043735116416
0.0665,0.0441739484667778,0.0,0.05059136847737613
0.0669999999999999,0.0441626161336898,0.00030517578125,0.0501759946201599
0.0675,0.0441509261727333,0.0006103515625,0.049633383537240366
0.0679999999999999,0.0441394597291946,0.00030517578125,0.04917152148606127
0.0685,0.0441279970109462,0.00030517578125,0.04870731231776616
0.0689999999999999,0.0441162809729576,0.00030517578125,0.04815979623796855
0.0695,0.0441047921776771,0.00030517578125,0.04769486832465092
0.0699999999999999,0.0440931804478168,0.0006103515625,0.04718918157116438
0.0705,0.0440816208720207,0.0,0.046704470006982565
0.0709999999999999,0.0440701581537723,0.00030517578125,0.046251708296532044
0.0715,0.0440583601593971,0.00030517578125,0.04569205751124146
0.0719999999999999,0.044047076255083,0.00030517578125,0.04530528686682739
0.0725,0.0440353080630302,0.0006103515625,0.04475783550476734
0.0729999999999999,0.0440235957503318,0.00091552734375,0.0442403686437803
0.0735,0.0440118610858917,0.0006103515625,0.04372423413321784
0.0739999999999999,0.0440003387629985,0.00030517578125,0.04328067694589212
0.0745,0.0439889803528785,0.00030517578125,0.042884058012982576
0.0749999999999999,0.0439772196114063,0.0,0.04235785763279813
0.0755,0.0439655408263206,0.00091552734375,0.04186685027788359
0.0759999999999999,0.0439540967345237,0.00152587890625,0.04145120122762622
0.0765,0.0439424030482769,0.0006103515625,0.04095690654728932
0.0769999999999999,0.0439309179782867,0.0,0.04053078560954765
0.0775,0.0439192727208137,0.00091552734375,0.04005525846927294
0.0779999999999999,0.0439076274633407,0.0006103515625,0.039584517806585784
0.0785,0.0438959114253521,0.0,0.0390972438597187
0.0789999999999999,0.0438847467303276,0.0006103515625,0.03877541938011672
0.0795,0.0438729226589202,0.0006103515625,0.03824943225101046
0.0799999999999999,0.0438611470162868,0.0006103515625,0.037750588680762656
0.0805,0.0438497066497802,0.00030517578125,0.03735556139209511
0.0809999999999999,0.043838158249855,0.00030517578125,0.03692526970174374
0.0815,0.0438264831900596,0.00091552734375,0.03646022590041374
0.0819999999999999,0.0438149124383926,0.0006103515625,0.03602986388165026
0.0825,0.0438035391271114,0.00030517578125,0.035655088809523935
0.0829999999999999,0.0437919311225414,0.00030517578125,0.035209583230945585
0.0835,0.0437802486121654,0.00091552734375,0.03474784518293646
0.0839999999999999,0.0437686182558536,0.0,0.034306708987425376
0.0845,0.0437571369111537,0.0006103515625,0.0339095728200765
0.0849999999999999,0.0437454991042614,-0.00030517578125,0.03346858359859261
0.0855,0.0437339544296264,0.0,0.03305669685696241
0.0859999999999999,0.0437225736677646,0.0006103515625,0.03268918174538687
0.0865,0.0437109246850013,0.0,0.03224620551068001
0.0869999999999999,0.0436995290219783,0.00030517578125,0.03187534839150022
0.0875,0.0436876639723777,0.0006103515625,0.031378573785305
0.0879999999999999,0.0436762683093547,0.0006103515625,0.03101662926191006
0.0885,0.0436643399298191,0.00030517578125,0.03051332365205339
0.0889999999999999,0.0436529815196991,0.00091552734375,0.0301702144982257
0.0895,0.0436412058770656,0.0006103515625,0.029714954724556535
0.0899999999999999,0.0436298437416553,0.0006103515625,0.029372812362270753
0.0905,0.0436180867254734,0.0006103515625,0.028926171132063583
0.0909999999999999,0.0436066128313541,0.0006103515625,0.02855820923428973
0.0915,0.0435947328805923,0.00091552734375,0.028088269736612544
0.0919999999999999,0.0435830876231193,0.0,0.027687478054503806
0.0925,0.0435714907944202,0.00030517578125,0.027301479600048053
0.0929999999999999,0.0435596965253353,0.00030517578125,0.026869018895460058
0.0935,0.0435482785105705,0.00030517578125,0.026534244145716437
0.0939999999999999,0.0435368157923221,0.0,0.0261845731623385
0.0945,0.043525356799364,0.0006103515625,0.02583407989975704
0.0949999999999999,0.0435134544968605,0.00030517578125,0.025377270153579046
0.0955,0.0435022972524166,0.00030517578125,0.025106333400349044
0.0959999999999999,0.0434905774891376,0.00030517578125,0.02469390106789298
0.0965,0.0434791296720504,0.0006103515625,0.024351104017837816
0.0969999999999999,0.043467428535223,0.00030517578125,0.023948807499265996
0.0975,0.0434559993445873,0.0,0.023614324006350208
0.0979999999999999,0.0434444695711135,0.0006103515625,0.02325538711914698
0.0985,0.0434327647089958,0.0006103515625,0.022858540015564716
0.0989999999999999,0.0434213615953922,0.00030517578125,0.022535027970776347
0.0995,0.0434098541736602,0.0,0.022186430987800116
0.0999999999999999,0.0433982573449611,0.00030517578125,0.021819254455707874
0.1005,0.0433868095278739,0.00030517578125,0.021487863408219433
0.1009999999999999,0.0433754585683345,0.00030517578125,0.021177199931650514
0.1015,0.0433635935187339,0.0006103515625,0.020754103947640924
0.1019999999999999,0.0433518923819065,0.0006103515625,0.02037627935351729
0.1025,0.0433406420052051,0.0006103515625,0.020099063718874023
0.1029999999999999,0.0433288514614105,0.0,0.019703538919598362
0.1035,0.043317474424839,0.00030517578125,0.01940184415051549
0.1039999999999999,0.0433057695627212,0.0006103515625,0.019030675074467297
0.1045,0.0432942882180213,0.0006103515625,0.01871089112429627
0.1049999999999999,0.0432826913893222,0.0006103515625,0.018368255098200663
0.1055,0.0432712286710739,0.0006103515625,0.01805578736615518
0.1059999999999999,0.0432595461606979,0.0,0.017699839931970985
0.1065,0.0432478934526443,0.00030517578125,0.017354670364621783
0.1069999999999999,0.0432366579771041,0.00030517578125,0.017095248634443005
0.1075,0.0432247705757617,0.00030517578125,0.016705371357626064
0.1079999999999999,0.0432130955159664,0.00091552734375,0.016365439135957418
0.1085,0.043201558291912,-0.00030517578125,0.016055866815709554
0.1089999999999999,0.0431899353861808,0.0006103515625,0.015731633521995768
0.1095,0.0431784093379974,0.0006103515625,0.015428601388758146
0.1099999999999999,0.0431668199598789,0.0,0.015115193702771564
0.1105,0.0431553423404693,0.0006103515625,0.014824827145593189
0.1109999999999999,0.0431436412036418,0.0006103515625,0.014494567226626611
0.1115,0.0431318990886211,0.00030517578125,0.014161555914938777
0.1119999999999999,0.0431206747889518,0.0,0.013925482639757772
0.1125,0.0431088656187057,0.0006103515625,0.01358304419109095
0.1129999999999999,0.0430972911417484,0.0,0.013287868307465131
0.1135,0.0430857948958873,0.00091552734375,0.01300828753705321
0.1139999999999999,0.0430743172764778,0.00091552734375,0.012732916764722633
0.1145,0.0430629178881645,0.00030517578125,0.012471707260818633
0.1149999999999999,0.0430510938167572,0.00030517578125,0.012139690673427132
0.1155,0.0430395789444446,0.0006103515625,0.011864942883943118
0.1159999999999999,0.0430283695459365,0.00030517578125,0.011641456927547334
0.1165,0.0430161952972412,-0.00030517578125,0.011260308078764748
0.1169999999999999,0.0430047251284122,0.0006103515625,0.011002521311643225
0.1175,0.0429931543767452,0.0006103515625,0.010729671858733372
0.118,0.0429816357791423,0.0006103515625,0.010467223759969252
0.1185,0.0429698638617992,0.0006103515625,0.010167742165066631
0.119,0.0429585538804531,0.00091552734375,0.009943064917093646
0.1195,0.0429467931389808,0.00030517578125,0.009650194892331921
0.12,0.0429352261126041,0.0006103515625,0.009390828118634086
0.1205,0.0429238714277744,0.00030517578125,0.009164565144178174
0.121,0.042912270873785,0.0,0.008902886326460191
0.1215,0.0429004989564418,0.0006103515625,0.008620128099868599
0.122,0.042889054864645,0.00091552734375,0.008388015150240971
0.1225,0.0428773462772369,0.0,0.008120733864104585
0.123,0.0428657233715057,0.00030517578125,0.00786926533325821
0.1235,0.0428542755544185,0.0006103515625,0.007644194084215707
0.124,0.0428425520658493,0.0006103515625,0.0073842625235641425
0.1245,0.0428310558199882,0.0006103515625,0.0071579128380840264
0.125,0.0428194738924503,0.0006103515625,0.006922528646531936
0.1254999999999999,0.0428078360855579,0.0,0.0066830731728343635
0.126,0.0427959077060222,0.00030517578125,0.00641155119607894
0.1264999999999999,0.0427843146026134,0.00030517578125,0.006186554633593228
0.127,0.0427728593349456,0.0006103515625,0.005980560944248744
0.1274999999999999,0.0427614524960517,0.00030517578125,0.005781680117143288
0.128,0.0427496880292892,0.00030517578125,0.005543265353758086
0.1284999999999999,0.0427382327616214,0.00030517578125,0.0053439993234559195
0.129,0.0427267216145992,0.00091552734375,0.0051403648545510945
0.1294999999999999,0.042715061455965,0.0006103515625,0.004923127393738302
0.13,0.0427036695182323,0.00030517578125,0.00473788274215177
0.1304999999999999,0.0426919236779212,0.0006103515625,0.004517681062237162
0.131,0.0426804572343826,0.00091552734375,0.004330258590592224
0.1314999999999999,0.0426688641309738,0.0,0.004132630241758627
0.132,0.0426571555435657,0.0006103515625,0.003927316658126915
0.1324999999999999,0.0426455698907375,0.0006103515625,0.0037379174123057515
0.133,0.0426339134573936,0.00030517578125,0.0035454465405074117
0.1334999999999999,0.0426225662231445,0.00030517578125,0.0033844995585944502
0.134,0.042611114680767,0.00091552734375,0.0032161780216975002
0.1344999999999999,0.0425994507968425,0.00030517578125,0.0030325384951036638
0.135,0.0425878763198852,0.0,0.002860587872463569
0.1354999999999999,0.0425762496888637,0.00030517578125,0.002688182906970218
0.136,0.0425647757947444,0.00030517578125,0.002531750043937841
0.1364999999999999,0.0425529740750789,0.0,0.002353926626673102
0.137,0.0425417199730873,0.0006103515625,0.002221283731170932
0.1374999999999999,0.0425299294292926,0.0006103515625,0.002052943942355894
0.138,0.0425185561180114,0.0006103515625,0.0019183796878122143
0.1384999999999999,0.0425068028271198,0.00030517578125,0.0017620648393599754
0.139,0.0424953363835811,0.0006103515625,0.0016291863404766726
0.1394999999999999,0.0424837656319141,0.0006103515625,0.0014938567740439652
0.14,0.0424719601869583,0.0006103515625,0.001349774677173243
0.1404999999999999,0.0424605868756771,0.0006103515625,0.001235353531152348
0.141,0.0424487777054309,0.00030517578125,0.001102060158946461
0.1414999999999999,0.0424371808767318,0.0006103515625,0.0009856504929759036
0.142,0.0424257107079029,0.00030517578125,0.0008803575120557894
0.1424999999999999,0.0424142256379127,0.00030517578125,0.0007791179553263845
0.143,0.0424025543034076,0.0006103515625,0.0006753486031691232
0.1434999999999999,0.0423906780779361,0.001220703125,0.000570344376453051
0.144,0.0423794984817504,0.0006103515625,0.000497096184496477
0.1444999999999999,0.0423676557838916,0.0,0.0004067022176038505
0.145,0.0423561818897724,0.00030517578125,0.0003349244471348041
0.1454999999999999,0.0423446968197822,0.00091552734375,0.00026892275135202394
0.146,0.0423330701887607,0.00030517578125,0.00020616587778669922
0.1464999999999999,0.042321354150772,0.0006103515625,0.00014932904697766445
0.147,0.0423097684979438,0.0006103515625,0.00010309241728153706
0.1474999999999999,0.0422980785369873,0.0006103515625,6.358690466192011e-05
0.148,0.0422865897417068,0.0006103515625,3.503208576811655e-05
0.1484999999999999,0.042274959385395,0.0006103515625,1.3827447740825386e-05
0.149,0.0422635190188884,-0.00030517578125,2.658383738597017e-06
0.1494999999999999,0.0422520488500595,0.0,0.0
0.15,0.0422402024269104,0.0006103515625,0.0
