time [s],Lmtc [m],STIM [ ],Fsee [N]
0.0,0.0455018579959869,0.00030517578125,0.17641594638308233
0.0004999999999999,0.0455018728971481,0.00030517578125,0.1764251798989587
0.001,0.0455020926892757,0.00030517578125,0.1765675891753482
0.0014999999999999,0.0455018430948257,-0.00030517578125,0.17640250595334458
0.002,0.0455019548535347,0.00030517578125,0.17647501248835873
0.0024999999999999,0.045502133667469,0.0,0.17659004830313235
0.003,0.0455022118985652,0.00030517578125,0.17663790511899646
0.0034999999999999,0.0455019325017929,0.00030517578125,0.17645234986535263
0.004,0.0455020442605018,0.0006103515625,0.17652412918941737
0.0044999999999999,0.0455020107328891,0.0,0.1765003124055173
0.005,0.0455019883811473,0.0,0.17648413051598758
0.0054999999999999,0.0455018393695354,0.0006103515625,0.17638575040799595
0.006,0.0455020293593406,0.0006103515625,0.1765093922933471
0.0064999999999999,0.0455020293593406,0.0,0.1765075598789174
0.007,0.0455014705657959,0.00030517578125,0.1761435979370029
0.0074999999999999,0.0455004870891571,0.0006103515625,0.17551850458948226
0.008,0.0454977042973041,0.0006103515625,0.17375848682087416
0.0084999999999999,0.0454938225448131,0.00030517578125,0.1713648239043526
0.009,0.045488242059946,0.00030517578125,0.16799597253577905
0.0094999999999999,0.0454810336232185,0.0006103515625,0.16377067895706454
0.01,0.0454721264541149,0.00030517578125,0.15872612370885136
0.0104999999999999,0.0454618744552135,0.0,0.1531796812937122
0.011,0.0454505942761898,0.00030517578125,0.14741185945785557
0.0114999999999999,0.0454384498298168,0.0006103515625,0.14160835272168093
0.012,0.0454257577657699,0.0,0.13603241890228077
0.0124999999999999,0.045413315296173,0.0006103515625,0.1311837200363672
0.013,0.045400220900774,0.00030517578125,0.12658024772902093
0.0134999999999999,0.0453868322074413,-0.00030517578125,0.12247582979635774
0.014,0.0453736335039138,0.00030517578125,0.11912097958106246
0.0144999999999999,0.0453603640198707,0.0006103515625,0.11631571678518698
0.015,0.0453473553061485,0.0,0.1141456060373038
0.0154999999999999,0.0453343316912651,0.0,0.11235420063957909
0.016,0.0453211069107055,0.0006103515625,0.11076905842225515
0.0164999999999999,0.0453084111213684,0.0,0.10966350109351
0.017,0.0452951379120349,0.00030517578125,0.10840716661559797
0.0174999999999999,0.0452826730906963,0.0,0.10765187185814255
0.018,0.045269638299942,0.00030517578125,0.10664456703861544
0.0184999999999999,0.0452568680047988,0.00030517578125,0.10582228187216193
0.019,0.0452443324029445,0.0006103515625,0.10511828000237218
0.0194999999999999,0.0452315583825111,-0.00030517578125,0.1042956754240796
0.02,0.0452184863388538,0.00030517578125,0.10336173009424753
0.0204999999999999,0.0452059805393219,0.00030517578125,0.1027192682947148
0.021,0.0451931804418563,0.00030517578125,0.10191572936123579
0.0214999999999999,0.045180469751358,0.0,0.10116550323342903
0.022,0.0451673977077007,0.0006103515625,0.10025931007657952
0.0224999999999999,0.0451547428965568,0.00030517578125,0.09957160574990771
0.023,0.0451420955359935,0.0006103515625,0.0988682480958638
0.0234999999999999,0.0451294928789138,0.0006103515625,0.09817162783531594
0.024,0.0451167449355125,0.00030517578125,0.09740052437140315
0.0244999999999999,0.0451041124761104,0.00030517578125,0.09668609425839803
0.025,0.0450915358960628,0.00030517578125,0.09598900051464171
0.0254999999999999,0.0450787395238876,0.0,0.09518966300805087
0.026,0.0450663156807422,0.00091552734375,0.0945649716822861
0.0264999999999999,0.0450535453855991,-0.0006103515625,0.09376910041775566
0.027,0.0450409166514873,0.00030517578125,0.09305166243012852
0.0274999999999999,0.0450283139944076,0.00030517578125,0.0923446226593089
0.028,0.0450154542922973,0.0006103515625,0.09152840282979305
0.0284999999999999,0.0450029708445072,0.00091552734375,0.09089267909405369
0.029,0.044990237802267,0.0,0.09013379447947312
0.0294999999999999,0.0449775196611881,0.0006103515625,0.08939375804765762
0.03,0.0449648611247539,0.00030517578125,0.08868605836889741
0.0304999999999999,0.0449520722031593,0.00091552734375,0.08792587752586131
0.031,0.0449393615126609,0.0,0.08721163114801196
0.0314999999999999,0.0449267737567424,0.00030517578125,0.08655005819034053
0.032,0.0449139103293418,0.0,0.08576779137577663
0.0324999999999999,0.0449012517929077,0.0006103515625,0.08508804972429786
0.033,0.0448887310922145,-0.0006103515625,0.08445937107120449
0.0334999999999999,0.0448759496212005,0.0006103515625,0.08371058355069326
0.034,0.0448636263608932,0.0006103515625,0.08315908552056725
0.0344999999999999,0.044850580394268,0.00030517578125,0.08228991543672039
0.035,0.044838011264801,0.00030517578125,0.08165515952408736
0.0354999999999999,0.0448251962661743,0.0006103515625,0.08091201723302532
0.036,0.0448125936090946,0.0,0.08026779760119247
0.0364999999999999,0.0447997599840164,0.00030517578125,0.07952569985363786
0.037,0.0447871461510658,0.00030517578125,0.07888556884173935
0.0374999999999999,0.0447745956480503,0.00091552734375,0.07826261019296486
0.038,0.0447618030011653,0.0006103515625,0.07753557188536608
0.0384999999999999,0.0447489358484745,0.00030517578125,0.07679446478422969
0.039,0.0447363853454589,0.0006103515625,0.07619300225433047
0.0394999999999999,0.044723454862833,0.00030517578125,0.07543240781203565
0.04,0.0447109267115592,0.00030517578125,0.07484869379434127
0.0404999999999999,0.0446984507143497,0.00030517578125,0.07426802127904249
0.041,0.0446856804192066,0.00091552734375,0.07355994455480742
0.0414999999999999,0.0446729324758052,0.0006103515625,0.07287407726966322
0.042,0.0446603372693061,0.0006103515625,0.07225457872839298
0.0424999999999999,0.0446477606892585,-0.00030517578125,0.07163765418127142
0.043,0.0446347333490848,0.00030517578125,0.07084789768119631
0.0434999999999999,0.0446224175393581,0.00030517578125,0.07035475977378393
0.044,0.0446096397936344,0.00030517578125,0.0696591062056169
0.0444999999999999,0.0445967130362987,0.0006103515625,0.068923285143969
0.045,0.0445841029286384,0.0,0.06832659956636473
0.0454999999999999,0.0445715524256229,0.0,0.06774389053499572
0.046,0.0445589758455753,0.00091552734375,0.06714245150965939
0.0464999999999999,0.0445459447801113,0.0,0.0663721841148985
0.047,0.044533621519804,0.0,0.06588958371618807
0.0474999999999999,0.0445206724107265,0.0006103515625,0.06515321607361761
0.048,0.0445083528757095,0.0,0.0646681868475216
0.0484999999999999,0.0444952622056007,0.0,0.06388334220237916
0.049,0.044482409954071,0.00030517578125,0.06322043766577858
0.0494999999999999,0.0444697849452495,0.00030517578125,0.06264775941430578
0.05,0.0444572009146213,0.0,0.06208234506913406
0.0504999999999999,0.0444444492459297,0.00030517578125,0.06145106964552396
0.051,0.0444317273795604,0.0,0.06083683582911717
0.0514999999999999,0.0444189645349979,0.0006103515625,0.06021182558947744
0.052,0.044406309723854,-0.00030517578125,0.05963036606737325
0.0524999999999999,0.0443935729563236,-0.00030517578125,0.059018754508534485
0.053,0.0443808548152446,0.0,0.05841812664355074
0.0534999999999999,0.0443681143224239,0.0006103515625,0.05781259339913275
0.054,0.0443554744124412,0.00030517578125,0.057245530673037705
0.0544999999999999,0.0443425215780735,0.0006103515625,0.05657003128232574
0.055,0.0443300046026706,0.0,0.056060113795503595
0.0554999999999999,0.0443174019455909,0.0,0.055508555445957716
0.056,0.0443046987056732,0.00030517578125,0.05491950415562737
0.0564999999999999,0.0442919395864009,0.00030517578125,0.05431575677476564
0.057,0.0442793555557727,-0.00030517578125,0.053776990563146006
0.0574999999999999,0.044266864657402,0.00030517578125,0.05326459372590516
0.058,0.0442539155483245,0.00030517578125,0.05259333313368157
0.0584999999999999,0.044241227209568,0.00030517578125,0.05202795350652129
0.059,0.0442286618053913,0.0,0.05150414118175073
0.0595,0.044215902686119,0.0,0.05091282720269636
0.06,0.044203195720911,0.0006103515625,0.0503459952733999
0.0605,0.0441905073821544,0.00030517578125,0.04978857925165244
0.061,0.0441778264939785,0.0,0.04923584279859585
0.0615,0.0441651716828346,-0.00030517578125,0.048693320390474984
0.062,0.0441524647176265,0.00030517578125,0.04813501773147153
0.0625,0.0441397875547409,0.0,0.04758988980902037
0.0629999999999999,0.0441271513700485,0.0006103515625,0.04705956220837853
0.0635,0.044114626944065,0.00091552734375,0.046564268679089145
0.0639999999999999,0.0441016405820846,0.00030517578125,0.0459210499697627
0.0645,0.0440890863537788,-0.0006103515625,0.04543048981778724
0.0649999999999999,0.0440764129161834,0.0,0.044897865458751594
0.0655,0.0440635830163955,-0.0006103515625,0.044320656552133034
0.0659999999999999,0.0440506748855114,0.0,0.043730264656893565
0.0665,0.0440381802618503,0.0,0.0432758705393221
0.0669999999999999,0.0440255068242549,0.00030517578125,0.04275807876906096
0.0675,0.0440127812325954,0.0,0.04222607064268745
0.0679999999999999,0.0440003089606761,0.0,0.04177300223744007
0.0685,0.0439875423908233,0.0006103515625,0.04122547166307901
0.0689999999999999,0.0439749062061309,0.0006103515625,0.04072386222085474
0.0695,0.043962113559246,0.0,0.04017755092732298
0.0699999999999999,0.0439494885504245,0.00030517578125,0.039687971696683005
0.0705,0.0439364537596702,0.00030517578125,0.03908082147489741
0.0709999999999999,0.0439237542450428,0.0,0.03858806877306564
0.0715,0.0439113266766071,0.0,0.03817255158707657
0.0719999999999999,0.0438985601067543,0.0,0.03765043691772902
0.0725,0.043885949999094,0.00030517578125,0.037178793259998046
0.0729999999999999,0.0438730753958225,0.0,0.03663248116469983
0.0735,0.0438604578375816,0.00030517578125,0.03616789477262682
0.0739999999999999,0.0438477993011474,0.00030517578125,0.03569058190081495
0.0745,0.0438351891934871,0.0006103515625,0.03522754317381251
0.0749999999999999,0.0438224859535694,0.0,0.03473853215455047
0.0755,0.0438098534941673,0.00030517578125,0.034272313524958534
0.0759999999999999,0.0437971726059913,-0.00030517578125,0.0337937958671042
0.0765,0.0437844209372997,0.00030517578125,0.03329967587695887
0.0769999999999999,0.0437715761363506,0.0006103515625,0.03278665748121455
0.0775,0.0437587834894657,0.0006103515625,0.03229589480962407
0.0779999999999999,0.0437461696565151,-0.00030517578125,0.031857477435259504
0.0785,0.043733287602663,-0.0006103515625,0.031348185626088786
0.0789999999999999,0.043720606714487,0.00030517578125,0.030899817246514957
0.0795,0.0437079705297946,-0.00030517578125,0.030463083872433704
0.0799999999999999,0.0436955578625202,0.00030517578125,0.030082465893697515
0.0805,0.0436825230717659,-0.00030517578125,0.029537561938380797
0.0809999999999999,0.0436698161065578,0.0006103515625,0.029090463436011144
0.0815,0.043656937777996,0.00030517578125,0.028602552597340736
0.0819999999999999,0.043644580990076,0.0,0.02825128625986535
0.0825,0.0436318777501583,0.0006103515625,0.027805229141538393
0.0829999999999999,0.0436190068721771,0.0006103515625,0.027321739816442526
0.0835,0.0436062812805175,0.00030517578125,0.02688187812156078
0.0839999999999999,0.0435935631394386,0.00030517578125,0.026446837649336242
0.0845,0.043580874800682,0.0006103515625,0.026021679790621033
0.0849999999999999,0.0435680747032165,-0.00030517578125,0.025572014194173896
0.0855,0.0435553677380085,-0.00030517578125,0.025149284694408795
0.0859999999999999,0.0435428731143474,0.0006103515625,0.024777960512227415
0.0865,0.043530236929655,0.0006103515625,0.024370042255393753
0.0869999999999999,0.0435175634920597,0.0,0.023954742519118024
0.0875,0.043505024164915,-0.0006103515625,0.023572316156583197
0.0879999999999999,0.0434922948479652,0.00030517578125,0.023145825722343916
0.0885,0.0434797741472721,0.0006103515625,0.022770396116726536
0.0889999999999999,0.0434671901166439,0.00030517578125,0.022379519722120454
0.0895,0.0434542149305343,0.00030517578125,0.02190394107768302
0.0899999999999999,0.0434416979551315,0.0,0.021539762571156786
0.0905,0.0434290505945682,0.0006103515625,0.02114587856207317
0.0909999999999999,0.0434162281453609,0.00091552734375,0.0207169573278721
0.0915,0.0434035807847976,0.0006103515625,0.020331923579760464
0.0919999999999999,0.0433908998966217,0.0,0.01994176107457251
0.0925,0.043378110975027,0.0006103515625,0.019532067782927338
0.0929999999999999,0.0433654598891735,0.00030517578125,0.019156252585404425
0.0935,0.0433527268469333,0.0006103515625,0.01876562212498298
0.0939999999999999,0.0433399602770805,-0.00030517578125,0.01837215018355341
0.0945,0.0433273315429687,-0.00030517578125,0.018010723510033372
0.0949999999999999,0.0433145761489868,0.0,0.017625409692278077
0.0955,0.0433019138872623,0.00091552734375,0.01726258803442345
0.0959999999999999,0.043289165943861,-0.00030517578125,0.01688518062950458
0.0965,0.0432765185832977,0.0006103515625,0.01653090825253347
0.0969999999999999,0.0432640314102172,0.0006103515625,0.01620876103912353
0.0975,0.0432512164115905,0.0006103515625,0.015823518826052648
0.0979999999999999,0.0432387851178646,0.00030517578125,0.015515501052032726
0.0985,0.0432256273925304,0.0006103515625,0.015071760879652459
0.0989999999999999,0.0432131253182888,0.00030517578125,0.01476008704677979
0.0995,0.0432004295289516,0.0,0.014412348600891352
0.0999999999999999,0.0431877970695495,0.00030517578125,0.014078894393957783
0.1005,0.0431749857962131,0.0,0.013715844520113733
0.1009999999999999,0.0431625172495842,0.0,0.013417573871247033
0.1015,0.0431495159864425,0.0,0.013026816783891665
0.1019999999999999,0.043137103319168,0.00030517578125,0.012744554045510791
0.1025,0.0431242138147354,0.0006103515625,0.012380479063668692
0.1029999999999999,0.0431115925312042,-0.00030517578125,0.012067365641825187
0.1035,0.0430991128087043,0.0,0.011779055174021197
0.1039999999999999,0.0430863387882709,0.0,0.011442941752665286
0.1045,0.0430735573172569,0.00030517578125,0.011110467307963626
0.1049999999999999,0.0430608391761779,0.00030517578125,0.01079263355998042
0.1055,0.0430481806397438,0.001220703125,0.010487460798002881
0.1059999999999999,0.0430356971919536,0.0,0.010211567328163196
0.1065,0.043022945523262,0.00030517578125,0.009895695987604137
0.1069999999999999,0.0430099479854106,0.00030517578125,0.009547944734303688
0.1075,0.0429972782731056,0.0,0.009255658446686877
0.1079999999999999,0.0429843850433826,0.0,0.008934162599877402
0.1085,0.0429720766842365,0.00030517578125,0.008700774877229464
0.1089999999999999,0.0429594069719314,0.0,0.008415074376159097
0.1095,0.0429466441273689,0.00091552734375,0.008119878998659737
0.1099999999999999,0.0429339595139026,0.00030517578125,0.007839602215261829
0.1105,0.0429211072623729,0.00030517578125,0.0075406257074029735
0.1109999999999999,0.0429083965718746,0.00030517578125,0.007265451301222999
0.1115,0.0428956411778926,-0.00030517578125,0.006988178799936193
0.1119999999999999,0.0428830161690712,0.00030517578125,0.00673130254503058
0.1125,0.0428701415657997,-0.00030517578125,0.006446552727234534
0.1129999999999999,0.0428577400743961,0.00091552734375,0.006224052352596301
0.1135,0.0428449437022209,0.0006103515625,0.005955492497885768
0.1139999999999999,0.0428320802748203,0.00091552734375,0.005684147156636717
0.1145,0.0428192652761936,-0.00030517578125,0.0054237902045914995
0.1149999999999999,0.0428066104650497,0.00030517578125,0.005185959533445966
0.1155,0.0427940115332603,0.00030517578125,0.004957416409209152
0.1159999999999999,0.0427811555564403,0.00030517578125,0.004704787382000461
0.1165,0.0427684597671031,0.0006103515625,0.004474062507811963
0.1169999999999999,0.0427556373178958,-0.00030517578125,0.004234684094397895
0.1175,0.0427432656288147,0.0,0.004044229487952723
0.118,0.0427303910255432,0.00030517578125,0.0038073583520131338
0.1185,0.0427176989614963,-0.00030517578125,0.0035932245760991097
0.119,0.0427049472928047,0.0,0.0033781086224944617
0.1195,0.042692132294178,0.0006103515625,0.0031624596766419454
0.12,0.0426798090338707,0.0,0.0029935114617659977
0.1205,0.0426669903099536,0.0,0.00278597889150161
0.121,0.0426543988287448,0.0006103515625,0.0026021735614750303
0.1215,0.0426417961716651,0.00030517578125,0.002421703082905588
0.122,0.0426289290189743,0.0006103515625,0.0022264573795695687
0.1225,0.0426162779331207,0.0,0.002052975105482383
0.123,0.0426038727164268,0.0006103515625,0.0019010753208690235
0.1235,0.0425909347832202,0.00030517578125,0.0017185404078888516
0.124,0.0425780825316906,0.0006103515625,0.0015490440695523691
0.1245,0.0425658412277698,0.0006103515625,0.0014220918745499647
0.125,0.0425530597567558,0.00030517578125,0.0012683444514913508
0.1254999999999999,0.0425402112305164,0.00030517578125,0.001118340486673282
0.126,0.0425276271998882,0.0006103515625,0.0009890815259014584
0.1264999999999999,0.0425150878727436,0.0006103515625,0.0008680624034446997
0.127,0.042502287775278,0.00030517578125,0.0007422064976655049
0.1274999999999999,0.04248958081007,0.00030517578125,0.0006283755224319016
0.128,0.0424768775701522,0.0,0.0005227108088912451
0.1284999999999999,0.0424640886485576,0.00030517578125,0.00042267382505133106
0.129,0.0424512773752212,0.00030517578125,0.000331389885308702
0.1294999999999999,0.0424387939274311,0.0,0.00025818681159385753
0.13,0.0424258820712566,0.00030517578125,0.00018387251358211013
0.1304999999999999,0.0424131266772747,0.00030517578125,0.00012398139680491508
0.131,0.0424005463719368,0.00030517578125,7.750889842361325e-05
0.1314999999999999,0.0423877127468586,0.00030517578125,3.8832706385782e-05
0.132,0.042375024408102,0.00030517578125,1.3887507934564849e-05
0.1324999999999999,0.0423621237277984,0.0006103515625,1.0151126301713286e-06
0.133,0.0423497594892978,0.00091552734375,0.0
0.1334999999999999,0.0423368103802204,0.0006103515625,0.0
0.134,0.0423241034150123,0.0006103515625,0.0
0.1344999999999999,0.0423114486038684,0.00030517578125,0.0
0.135,0.042298998683691,0.00030517578125,0.0
0.1354999999999999,0.0422859564423561,0.0006103515625,0.0
0.136,0.0422735698521137,-0.00030517578125,0.0
0.1364999999999999,0.0422609597444534,0.00030517578125,0.0
0.137,0.0422478169202804,0.0,0.0
0.1374999999999999,0.0422353558242321,-0.00030517578125,0.0
0.138,0.0422224774956703,0.00030517578125,0.0
0.1384999999999999,0.0422100387513637,0.00030517578125,0.0
0.139,0.04219726100564,0.00030517578125,0.0
0.1394999999999999,0.0421846844255924,0.00030517578125,0.0
0.14,0.0421717911958694,0.00091552734375,0.0
0.1404999999999999,0.0421590320765972,-0.00030517578125,0.0
0.141,0.0421464294195175,0.00030517578125,0.0
0.1414999999999999,0.0421337336301803,0.0,0.0
0.142,0.04212087392807,0.0,0.0
0.1424999999999999,0.0421081744134426,0.0006103515625,0.0
0.143,0.0420956537127494,0.00030517578125,0.0
0.1434999999999999,0.0420827865600585,0.00030517578125,0.0
0.144,0.0420701429247856,0.00030517578125,0.0
0.1444999999999999,0.0420570820569992,0.0,0.0
0.145,0.0420444086194038,0.0,0.0
0.1454999999999999,0.0420316196978092,0.0,0.0
0.146,0.0420190393924713,-0.00030517578125,0.0
0.1464999999999999,0.0420065633952617,0.0006103515625,0.0
0.147,0.0419935509562492,0.0,0.0
0.1474999999999999,0.0419810861349105,0.00030517578125,0.0
0.148,0.0419685319066047,0.00091552734375,0.0
0.1484999999999999,0.0419558100402355,0.00030517578125,0.0
0.149,0.0419433265924453,0.00030517578125,0.0
0.1494999999999999,0.0419305004179477,0.0,0.0
0.15,0.041917759925127,-0.0006103515625,0.0
0.1504999999999999,0.0419053360819816,0.0,0.0
0.151,0.0418926142156124,0.00030517578125,0.0
0.1514999999999999,0.0418800972402095,0.00030517578125,0.0
0.152,0.0418671816587448,0.0,0.0
0.1524999999999999,0.0418545193970203,0.00030517578125,0.0
0.153,0.0418419055640697,0.0006103515625,0.0
0.1534999999999999,0.0418293178081512,-0.00030517578125,0.0
0.154,0.0418165475130081,0.00030517578125,0.0
0.1544999999999999,0.0418039485812187,0.00030517578125,0.0
0.155,0.041791133582592,0.0006103515625,0.0
0.1554999999999999,0.0417782887816429,0.0,0.0
0.156,0.0417660549283027,0.0,0.0
0.1564999999999999,0.0417532511055469,0.0006103515625,0.0
0.157,0.0417405739426612,0.0,0.0
0.1574999999999999,0.0417277254164218,0.0,0.0
0.158,0.0417150668799877,0.0,0.0
0.1584999999999999,0.0417023859918117,0.00030517578125,0.0
0.159,0.0416896194219589,0.00030517578125,0.0
0.1594999999999999,0.0416771806776523,0.0,0.0
