time [s],Lmtc [m],STIM [ ],Fsee [N]
0.0,0.041540652513504,-0.00030517578125,0.20323998745416527
0.0004999999999999,0.0415408462285995,0.00030517578125,0.2033797889137187
0.001,0.0415405891835689,0.00030517578125,0.20319126195319623
0.0014999999999999,0.0415406934916973,0.0006103515625,0.20326712322135315
0.002,0.0415403731167316,0.00030517578125,0.20303564082830505
0.0024999999999999,0.0415407307446002,0.0006103515625,0.20329847766358572
0.003,0.0415406487882137,0.0006103515625,0.20323776459157666
0.0034999999999999,0.0415406636893749,0.00030517578125,0.20324811854401698
0.004,0.0415407940745353,0.0006103515625,0.20334186560785944
0.0044999999999999,0.0415405333042144,0.0,0.20315109179267998
0.005,0.0415407940745353,0.00030517578125,0.20334084892706436
0.0054999999999999,0.0415406972169876,0.0006103515625,0.20326871445333553
0.006,0.0415406636893749,0.00030517578125,0.20324359924781712
0.0064999999999999,0.0415405333042144,0.00030517578125,0.20314912823909095
0.007,0.0415404886007308,0.0,0.20311924737970888
0.0074999999999999,0.0415397584438324,0.0006103515625,0.20259951870710344
0.008,0.0415386818349361,0.00030517578125,0.20184955281818703
0.0084999999999999,0.0415366403758525,0.0006103515625,0.20043993330985893
0.009,0.0415326543152332,0.0,0.19770528144449076
0.0094999999999999,0.041528332978487,0.0006103515625,0.19485317306156374
0.01,0.0415224730968475,0.0,0.19105973784313682
0.0104999999999999,0.0415162406861782,0.0006103515625,0.1872021213895366
0.011,0.0415091142058372,-0.00030517578125,0.18294610910943757
0.0114999999999999,0.0415019355714321,0.00030517578125,0.1789071853652016
0.012,0.0414938814938068,0.0,0.17454630758247336
0.0124999999999999,0.0414862558245658,0.00030517578125,0.1707655083056016
0.013,0.0414784960448741,0.0006103515625,0.16717463178794256
0.0134999999999999,0.0414704531431198,0.00091552734375,0.16368557540169976
0.014,0.0414623133838176,0.0006103515625,0.1604273476264449
0.0144999999999999,0.0414547175168991,0.00030517578125,0.15778979471008886
0.015,0.0414469987154006,0.0006103515625,0.1553124314474715
0.0154999999999999,0.0414396040141582,0.0006103515625,0.1532576343683777
0.016,0.0414319783449173,0.00091552734375,0.15125077586682845
0.0164999999999999,0.04142402485013,0.00030517578125,0.14923661223965334
0.017,0.0414164066314697,0.00030517578125,0.14761088686890064
0.0174999999999999,0.041408784687519,0.00030517578125,0.1461267010409753
0.018,0.0414009131491184,0.00030517578125,0.1446240047200789
0.0184999999999999,0.0413933657109737,0.0006103515625,0.14343528702622083
0.019,0.0413857251405715,0.0,0.14227708619791207
0.0194999999999999,0.0413781590759754,0.00030517578125,0.14124080663080457
0.02,0.0413700938224792,0.0006103515625,0.1399828051485899
0.0204999999999999,0.0413627736270427,0.0,0.13923429907059184
0.021,0.0413551777601242,0.00030517578125,0.1383460241424751
0.0214999999999999,0.0413478389382362,0.0006103515625,0.13763739703524622
0.022,0.0413399748504161,0.0006103515625,0.1366443018174963
0.0224999999999999,0.0413324981927871,0.00030517578125,0.1359163198296938
0.023,0.0413248613476753,0.00030517578125,0.1351095244545922
0.0234999999999999,0.0413172617554664,0.00091552734375,0.13434482071581705
0.024,0.0413097068667411,0.0006103515625,0.13361971139288473
0.0244999999999999,0.0413019992411136,-0.0006103515625,0.13281946840919814
0.025,0.0412945970892906,0.0,0.132206570158076
0.0254999999999999,0.0412868037819862,0.0,0.13137221189329054
0.026,0.0412794165313243,0.00030517578125,0.13078438074191773
0.0264999999999999,0.0412715896964073,0.0006103515625,0.12994683015279093
0.027,0.0412640012800693,0.00030517578125,0.12926450717363638
0.0274999999999999,0.0412563197314739,0.0006103515625,0.12853375883912227
0.028,0.0412489622831344,0.0,0.12798765159212777
0.0284999999999999,0.0412413105368614,0.00091552734375,0.1272667625611192
0.029,0.0412337221205234,0.0006103515625,0.12658917761864555
0.0294999999999999,0.0412262827157974,0.0006103515625,0.12599403355906352
0.03,0.041218739002943,0.00030517578125,0.12533447419173463
0.0304999999999999,0.0412108413875103,0.0,0.12448783057398964
0.031,0.0412034131586551,0.0006103515625,0.1239190285950515
0.0314999999999999,0.0411958023905754,0.00030517578125,0.1232413227411737
0.032,0.0411882922053337,-0.00030517578125,0.12262102309966398
0.0324999999999999,0.0411805920302867,0.00030517578125,0.12189667997726836
0.033,0.0411731414496898,0.0006103515625,0.12131511030198418
0.0334999999999999,0.0411655530333519,0.0006103515625,0.12065236249807205
0.034,0.0411580502986907,0.00091552734375,0.12003769277034478
0.0344999999999999,0.0411503352224826,0.00030517578125,0.11930834284146521
0.035,0.0411430560052394,0.00030517578125,0.11881930584725935
0.0354999999999999,0.041135337203741,0.00030517578125,0.11808208572779592
0.036,0.0411276705563068,0.00030517578125,0.11738687093940886
0.0364999999999999,0.0411203391849994,0.00030517578125,0.1168735338336931
0.037,0.0411127507686615,0.00030517578125,0.11621139137101849
0.0374999999999999,0.0411050841212272,0.00030517578125,0.1155140030402709
0.038,0.0410976745188236,0.00091552734375,0.11495875126530265
0.0384999999999999,0.0410901606082916,0.00030517578125,0.11434091726841551
0.039,0.0410826168954372,0.0006103515625,0.1137076217559301
0.0394999999999999,0.0410749875009059,0.00030517578125,0.11303328307217893
0.04,0.0410672761499881,0.00030517578125,0.11232523501749773
0.0404999999999999,0.0410597547888755,0.0006103515625,0.11172534454432262
0.041,0.0410523377358913,0.00030517578125,0.11117618483075445
0.0414999999999999,0.0410446003079414,0.00030517578125,0.11045730989819358
0.042,0.0410370752215385,0.00030517578125,0.10985997606529375
0.0424999999999999,0.0410294122993946,0.00030517578125,0.10919195105709001
0.043,0.0410218201577663,0.00030517578125,0.10856745187623722
0.0434999999999999,0.0410142727196216,0.0006103515625,0.10796750300152613
0.044,0.0410067178308963,0.0006103515625,0.10736323594129275
0.0444999999999999,0.0409990660846233,0.0,0.10671088435333878
0.045,0.0409916751086711,0.00091552734375,0.10619453187812662
0.0454999999999999,0.0409843884408474,0.0006103515625,0.10571989537775023
0.046,0.0409764237701892,0.0006103515625,0.10489538807239907
0.0464999999999999,0.0409689247608184,0.00091552734375,0.10432911802725349
0.047,0.040961530059576,0.0006103515625,0.10381050378066235
0.0474999999999999,0.0409540757536888,0.00030517578125,0.10325414211298599
0.048,0.0409463606774807,0.00091552734375,0.10256668384334675
0.0484999999999999,0.0409387685358524,0.0006103515625,0.1019512826654726
0.049,0.040931586176157,0.00091552734375,0.10153873827254502
0.0494999999999999,0.0409237034618854,0.00030517578125,0.10076736547480478
0.05,0.0409157872200012,0.00030517578125,0.10000448175877624
0.0504999999999999,0.0409083254635334,0.0006103515625,0.09948215435299931
0.051,0.040900819003582,0.00030517578125,0.09893102155200047
0.0514999999999999,0.0408933199942112,0.0006103515625,0.09838013738435036
0.052,0.0408858433365821,0.00030517578125,0.09783696393636125
0.0524999999999999,0.0408779121935367,0.0,0.09707417953057838
0.053,0.040870513767004,0.00030517578125,0.09658798320497096
0.0534999999999999,0.0408631078898906,0.00030517578125,0.09608800231267789
0.054,0.0408553965389728,0.00030517578125,0.09543562289841936
0.0544999999999999,0.0408479906618595,0.0,0.0949381316527552
0.055,0.0408401004970073,0.0006103515625,0.0942053948067622
0.0554999999999999,0.0408326722681522,0.0006103515625,0.0937093225044964
0.056,0.0408250018954277,0.0006103515625,0.09309240122095425
0.0564999999999999,0.04081741720438,0.0,0.09252232877304574
0.057,0.0408098697662353,0.00030517578125,0.09197110050012862
0.0574999999999999,0.0408022068440914,0.0006103515625,0.09136632974179194
0.058,0.0407944992184639,0.00030517578125,0.09074714818337294
0.0584999999999999,0.0407872274518013,0.00030517578125,0.09033627060711334
0.059,0.0407794043421745,0.0006103515625,0.08965604150689982
0.0595,0.0407719053328037,0.0006103515625,0.08913935458258607
0.06,0.040764432400465,0.00030517578125,0.08863106354135578
0.0605,0.0407570004463195,0.00030517578125,0.08813795164953978
0.061,0.0407490879297256,0.00030517578125,0.08742145344252686
0.0615,0.0407416075468063,0.0006103515625,0.08692046937530425
0.062,0.0407340191304683,0.00091552734375,0.08636640322130526
0.0625,0.0407265461981296,0.00030517578125,0.08586659950787441
0.0629999999999999,0.040718737989664,0.00030517578125,0.08521267040825391
0.0635,0.0407115183770656,0.0006103515625,0.08483515233450425
0.0639999999999999,0.0407038703560829,0.00091552734375,0.08424930939743717
0.0645,0.0406962744891643,0.0,0.08369367176362898
0.0649999999999999,0.0406885519623756,0.0006103515625,0.08308537630297062
0.0655,0.0406809747219085,0.0,0.08255062513282482
0.0659999999999999,0.040673267096281,0.0006103515625,0.08195979651198264
0.0665,0.0406657941639423,0.0006103515625,0.08147904509457889
0.0669999999999999,0.0406584069132804,0.0006103515625,0.08103131747423298
0.0675,0.0406506098806858,0.00030517578125,0.08039726901191098
0.0679999999999999,0.0406432934105396,0.00091552734375,0.07998528328140382
0.0685,0.0406356453895568,0.00030517578125,0.07941893755424485
0.0689999999999999,0.0406278856098651,0.00030517578125,0.07881047101689893
0.0695,0.0406203530728817,0.00091552734375,0.07831049998981215
0.0699999999999999,0.0406126715242862,0.00030517578125,0.07774561840491875
0.0705,0.0406054072082042,0.00091552734375,0.07736552125533523
0.0709999999999999,0.040597628802061,0.0006103515625,0.07675260986571467
0.0715,0.0405901446938514,0.00030517578125,0.076276920857031
0.0719999999999999,0.0405823998153209,0.0,0.0756880316484673
0.0725,0.0405751354992389,0.00091552734375,0.07531180465011082
0.0729999999999999,0.0405673086643219,0.0006103515625,0.07468574348782343
0.0735,0.0405597388744354,0.0006103515625,0.07418151262475613
0.0739999999999999,0.0405521169304847,0.0006103515625,0.07365659079970818
0.0745,0.0405442714691162,0.0,0.07304187536015434
0.0749999999999999,0.0405368544161319,0.0006103515625,0.07261817654614298
0.0755,0.0405292585492134,0.0006103515625,0.0721133312663093
0.0759999999999999,0.0405218601226806,0.00030517578125,0.0716918574650245
0.0765,0.0405139923095703,0.0006103515625,0.07107043199082294
0.0769999999999999,0.0405068770051002,0.00091552734375,0.07077210198715597
0.0775,0.0404988974332809,0.001220703125,0.07010212900937063
0.0779999999999999,0.0404913201928138,0.0006103515625,0.0696159443597644
0.0785,0.0404835194349288,0.00030517578125,0.06903955979978497
0.0789999999999999,0.0404761508107185,0.0006103515625,0.0686481989127308
0.0795,0.0404687114059925,0.0,0.06822026059358607
0.0799999999999999,0.0404608249664306,0.0006103515625,0.06760820839243709
0.0805,0.0404532961547374,0.00030517578125,0.06715348336103133
0.0809999999999999,0.0404457114636898,0.00091552734375,0.06667500549325252
0.0815,0.0404381714761257,0.00091552734375,0.0662155885541989
0.0819999999999999,0.0404304973781108,0.0006103515625,0.06570247467668484
0.0825,0.0404230579733848,0.00030517578125,0.06528713921181878
0.0829999999999999,0.0404153056442737,0.0,0.06474407040758061
0.0835,0.0404078066349029,0.0006103515625,0.06430835319987106
0.0839999999999999,0.0404004082083702,0.0006103515625,0.06390985901816998
0.0845,0.0403926745057106,0.00030517578125,0.06337548266759896
0.0849999999999999,0.0403850935399532,0.00091552734375,0.06290844941125028
0.0855,0.0403773188591003,0.00030517578125,0.062367692128473505
0.0859999999999999,0.0403700619935989,0.0,0.062035408830357665
0.0865,0.0403623953461647,0.00091552734375,0.06153480295020363
0.0869999999999999,0.0403548330068588,0.00091552734375,0.06107951877807096
0.0875,0.0403472334146499,0.0006103515625,0.06061099027428116
0.0879999999999999,0.0403398238122463,0.0006103515625,0.06021730993194174
0.0885,0.0403321236371994,0.0006103515625,0.05970928604922734
0.0889999999999999,0.0403246693313121,0.0006103515625,0.05930082223636497
0.0895,0.0403170548379421,0.00091552734375,0.05882959575166369
0.0899999999999999,0.0403095334768295,0.0006103515625,0.05839685614953645
0.0905,0.0403021536767482,0.0006103515625,0.05801724800058205
0.0909999999999999,0.0402944460511207,0.0006103515625,0.057510997339066165
0.0915,0.0402871221303939,0.0,0.05715442832214525
0.0919999999999999,0.040279421955347,0.0006103515625,0.05665246598120673
0.0925,0.040271833539009,0.0,0.056198917622564334
0.0929999999999999,0.0402642674744129,0.00030517578125,0.05575651011384042
0.0935,0.0402565971016883,0.0006103515625,0.055278033969656956
0.0939999999999999,0.0402490906417369,0.00030517578125,0.054864699380873364
0.0945,0.0402414835989475,0.00091552734375,0.05441432470559404
0.0949999999999999,0.0402342565357685,0.0006103515625,0.054104496754561686
0.0955,0.0402264632284641,0.0006103515625,0.053581871665178034
0.0959999999999999,0.0402190312743186,0.0,0.05319894090361975
0.0965,0.0402113310992717,0.00030517578125,0.052717963287851576
0.0969999999999999,0.0402038246393203,0.00030517578125,0.05231252101210041
0.0975,0.040196307003498,0.0,0.05190322124452316
0.0979999999999999,0.0401886664330959,0.0,0.05145107734396828
0.0985,0.0401810519397258,0.00030517578125,0.05101252921076446
0.0989999999999999,0.0401735119521617,0.0006103515625,0.0506034770662184
0.0995,0.0401661433279514,0.0006103515625,0.05025523470444087
0.0999999999999999,0.0401584729552269,0.0006103515625,0.04979800447395313
0.1005,0.0401508584618568,0.00030517578125,0.0493657541980489
0.1009999999999999,0.0401431396603584,0.00030517578125,0.04890102830675656
0.1015,0.0401356071233749,0.0006103515625,0.04850637517104968
0.1019999999999999,0.0401281118392944,0.0006103515625,0.048124939571751256
0.1025,0.0401207134127616,0.00091552734375,0.047776144099449816
0.1029999999999999,0.0401130393147468,0.0006103515625,0.047330796619861
0.1035,0.040105540305376,0.0006103515625,0.04694983534742189
0.1039999999999999,0.0400979965925216,0.00091552734375,0.04655385013894423
0.1045,0.0400905385613441,0.00091552734375,0.04618832473442696
0.1049999999999999,0.0400825925171375,-0.00030517578125,0.04565902324985746
0.1055,0.0400752387940883,0.00030517578125,0.04533896189121289
0.1059999999999999,0.0400676690042018,0.00091552734375,0.044942978496760745
0.1065,0.0400601103901863,0.0,0.044553018896461086
0.1069999999999999,0.0400521494448185,0.00091552734375,0.04403279301849738
0.1075,0.0400451608002185,0.00030517578125,0.0438423643528329
0.1079999999999999,0.0400371551513671,0.00091552734375,0.04330678289248903
0.1085,0.0400293953716754,0.00030517578125,0.04286440253112685
0.1089999999999999,0.0400222390890121,0.00030517578125,0.042622879913573865
0.1095,0.0400142967700958,0.00030517578125,0.042119614722116824
0.1099999999999999,0.0400069616734981,0.00030517578125,0.041821929717317845
0.1105,0.039999321103096,0.0,0.04142227079240259
0.1109999999999999,0.0399918816983699,0.001220703125,0.041089873645212084
0.1115,0.0399841219186782,0.00091552734375,0.04065474007488254
0.1119999999999999,0.0399767346680164,0.00030517578125,0.04034318948170294
0.1125,0.0399693064391613,0.00030517578125,0.04001600092837949
0.1129999999999999,0.0399615839123725,0.0006103515625,0.03959557285325446
0.1135,0.0399539805948734,0.0006103515625,0.039217984667372044
0.1139999999999999,0.039946261793375,0.0006103515625,0.03880738516927156
0.1145,0.0399389155209064,0.0006103515625,0.03851628851618642
0.1149999999999999,0.0399313606321811,0.0,0.03815762621167437
0.1155,0.0399237461388111,0.0006103515625,0.03778259077743758
0.1159999999999999,0.0399159714579582,0.0,0.037361994529551655
0.1165,0.0399089008569717,0.00030517578125,0.037160290213390186
0.1169999999999999,0.0399009399116039,-0.00030517578125,0.03668129558448359
0.1175,0.0398935861885547,0.00030517578125,0.036394860907168335
0.118,0.0398859605193138,0.0,0.03602434515501896
0.1185,0.0398783162236213,0.0006103515625,0.035651627315693366
0.119,0.0398707240819931,0.0006103515625,0.03529781974981916
0.1195,0.0398632548749446,0.0006103515625,0.03498222246139159
0.12,0.0398557633161544,0.0006103515625,0.03465968279684943
0.1205,0.0398478843271732,0.00030517578125,0.03422479202696344
0.121,0.0398406386375427,0.0006103515625,0.0339815250075594
0.1215,0.039833016693592,0.0006103515625,0.03362495701863841
0.122,0.0398252680897712,0.0006103515625,0.03323525084758361
0.1225,0.0398178957402706,0.00030517578125,0.032958305056652454
0.123,0.039810124784708,0.0006103515625,0.032565966504598434
0.1235,0.0398025177419185,0.0,0.032225887340951144
0.124,0.0397948324680328,0.00091552734375,0.03186624765038386
0.1245,0.0397874638438224,0.0,0.03159871552800235
0.125,0.0397799797356128,0.00091552734375,0.03129661536056695
0.1254999999999999,0.0397722348570823,0.00030517578125,0.030922581427480847
0.126,0.0397647470235824,0.0006103515625,0.030624510705970664
0.1264999999999999,0.0397573038935661,0.001220703125,0.030338808933218574
0.127,0.0397495850920677,0.0,0.02997737782355635
0.1274999999999999,0.039741825312376,0.00030517578125,0.02960945629301247
0.128,0.0397345311939716,0.0,0.02937221995775145
0.1284999999999999,0.0397268682718277,0.00030517578125,0.029032705534303756
0.129,0.0397191680967807,0.00091552734375,0.028686817043475935
0.1294999999999999,0.0397115051746368,0.00030517578125,0.02835466258566169
0.13,0.0397043116390705,0.00091552734375,0.028149571148234506
0.1304999999999999,0.0396965034306049,0.0006103515625,0.027778150449196386
0.131,0.0396889112889766,0.00091552734375,0.027469287184130328
0.1314999999999999,0.0396816059947013,0.00030517578125,0.027237071953117
0.132,0.0396735668182373,0.0006103515625,0.02681240156238376
0.1324999999999999,0.0396658591926097,0.0006103515625,0.026482644266429045
0.133,0.0396584942936897,0.0006103515625,0.02624403160756514
0.1334999999999999,0.0396510027348995,0.00091552734375,0.02597121128925941
0.134,0.0396433882415294,-0.00030517578125,0.025667586298377128
0.1344999999999999,0.0396355986595153,0.0,0.02532234402934198
0.135,0.0396282374858856,0.0006103515625,0.025089195229083535
0.1354999999999999,0.0396203473210334,0.00030517578125,0.024722803972793826
0.136,0.0396130308508873,0.0,0.024504681322970158
0.1364999999999999,0.0396055318415164,0.00030517578125,0.0242391881949639
0.137,0.0395978838205337,0.00030517578125,0.023937807457038805
0.1374999999999999,0.0395901128649711,0.0006103515625,0.02360942681748534
0.138,0.0395828038454055,0.0006103515625,0.02339715650477305
0.1384999999999999,0.0395750999450683,0.0006103515625,0.023087644113193383
0.139,0.039567794650793,0.00030517578125,0.02287694171375166
0.1394999999999999,0.0395600385963916,0.0006103515625,0.02255707655379835
0.14,0.0395524576306343,0.00030517578125,0.022283083703610655
0.1404999999999999,0.0395449995994567,0.00030517578125,0.022039686029657786
0.141,0.0395374447107315,0.00091552734375,0.021773770750110184
0.1414999999999999,0.0395297370851039,0.00091552734375,0.021473997577367326
0.142,0.0395223870873451,0.00030517578125,0.021260291348972154
0.1424999999999999,0.0395145453512668,0.0,0.020932665204497155
0.143,0.0395071916282177,0.00030517578125,0.020721631369470986
0.1434999999999999,0.0394996590912342,0.00030517578125,0.02046885929472835
0.144,0.0394921861588954,0.0006103515625,0.020230788023390157
0.1444999999999999,0.0394844934344291,0.00030517578125,0.019944261324309317
0.145,0.0394767224788665,0.00091552734375,0.019643942507060027
0.1454999999999999,0.0394691713154315,0.00030517578125,0.01939638351767719
0.146,0.0394617319107055,0.0006103515625,0.019174700001877192
0.1464999999999999,0.0394541174173355,0.0006103515625,0.018914911631279386
0.147,0.0394466556608676,0.0006103515625,0.018690489483096692
0.1474999999999999,0.039438858628273,0.0006103515625,0.01839439162539846
0.148,0.0394315235316753,0.0,0.018201523477826987
0.1484999999999999,0.0394239053130149,0.00030517578125,0.01794740462044256
0.149,0.0394163914024829,0.00030517578125,0.017717670208989122
0.1494999999999999,0.039408802986145,0.0006103515625,0.017473433057396053
0.15,0.0394013151526451,0.00030517578125,0.017252150932371455
0.1504999999999999,0.0393934994935989,0.0006103515625,0.016964033254516706
