time [s],Lmtc [m],STIM [ ],Fsee [N]
0.0,0.041540790349245,0.00030517578125,0.20325181093643907
0.0004999999999999,0.0415408462285995,0.0006103515625,0.20329183203916004
0.001,0.0415408089756965,0.00030517578125,0.20326381121608994
0.0014999999999999,0.0415407493710517,0.001220703125,0.20322016343076604
0.002,0.0415406711399555,0.0006103515625,0.2031642724737348
0.0024999999999999,0.0415407828986644,0.00030517578125,0.20324653562447179
0.003,0.041540939360857,0.0006103515625,0.2033593455549861
0.0034999999999999,0.0415408164262771,0.00091552734375,0.20326814717675756
0.004,0.0415410250425338,0.00030517578125,0.2034183754629688
0.0044999999999999,0.0415407977998256,0.0006103515625,0.20325080875495596
0.005,0.0415407344698905,0.00030517578125,0.20320475591461026
0.0054999999999999,0.041540652513504,0.0,0.20314668858635956
0.006,0.0415406264364719,0.0,0.20313062139103127
0.0064999999999999,0.0415407083928585,0.0006103515625,0.20319245288166948
0.007,0.0415408127009868,0.0,0.2032685536024193
0.0074999999999999,0.0415405854582786,0.00030517578125,0.20310429994131307
0.008,0.0415402799844741,0.0006103515625,0.20288933198127904
0.0084999999999999,0.041539292782545,0.00030517578125,0.20219463541711835
0.009,0.0415368936955928,0.00030517578125,0.2005163545870408
0.0094999999999999,0.0415335148572921,0.00030517578125,0.19821002642726004
0.01,0.0415281504392623,0.00030517578125,0.19460388828141126
0.0104999999999999,0.0415212996304035,0.0006103515625,0.1901402619454225
0.011,0.0415124371647834,0.0006103515625,0.18454110153077102
0.0114999999999999,0.0415027849376201,0.0006103515625,0.17875916662249203
0.012,0.0414912402629852,0.00030517578125,0.17213629563424668
0.0124999999999999,0.0414792895317077,0.0006103515625,0.16578893378493167
0.013,0.041466549038887,0.00030517578125,0.15953069151269295
0.0134999999999999,0.041453581303358,0.0006103515625,0.15379675278458887
0.014,0.0414401814341545,0.0006103515625,0.14849671338389756
0.0144999999999999,0.041426733136177,0.0006103515625,0.1438902555631937
0.015,0.0414139665663242,0.00030517578125,0.14035058712961582
0.0154999999999999,0.041400272399187,0.0006103515625,0.13684822741066194
0.016,0.0413876250386238,0.0006103515625,0.13447105580682972
0.0164999999999999,0.0413745567202568,0.0006103515625,0.13220104658404383
0.017,0.0413616076111793,0.0,0.13029609251189364
0.0174999999999999,0.0413487590849399,0.0,0.12865331523641638
0.018,0.0413357838988304,0.0006103515625,0.12708617099757105
0.0184999999999999,0.0413228943943977,0.00030517578125,0.12567834817750656
0.019,0.0413099527359008,0.0006103515625,0.12431437050556053
0.0194999999999999,0.0412971973419189,0.00030517578125,0.12309976289625182
0.02,0.0412846058607101,0.00091552734375,0.12198373896971423
0.0204999999999999,0.041271761059761,0.0,0.12073519023225834
0.021,0.0412589721381664,0.00091552734375,0.11954229244318873
0.0214999999999999,0.0412461534142494,0.00030517578125,0.1183492972262269
0.022,0.0412331782281398,0.0006103515625,0.11709465745991533
0.0224999999999999,0.041220411658287,0.0006103515625,0.11597195030117875
0.023,0.0412076786160469,0.00091552734375,0.11486387533997372
0.0234999999999999,0.0411947555840015,0.00030517578125,0.11366016906578823
0.024,0.0411819480359554,0.0006103515625,0.11253018488917181
0.0244999999999999,0.0411695837974548,0.00030517578125,0.11161640363846083
0.025,0.0411566458642482,0.0006103515625,0.11038406951791534
0.0254999999999999,0.0411438457667827,0.00030517578125,0.10925054966403526
0.026,0.041131068021059,0.00091552734375,0.10813643721288148
0.0264999999999999,0.0411183759570121,0.0006103515625,0.10706900242922858
0.027,0.0411054268479347,0.00030517578125,0.10587798897320423
0.0274999999999999,0.041092649102211,0.0006103515625,0.10479280737269211
0.028,0.0410802252590656,0.0006103515625,0.10387349256179926
0.0284999999999999,0.0410674698650836,0.00030517578125,0.10276648267150369
0.029,0.0410546287894248,0.00030517578125,0.10163205225788269
0.0294999999999999,0.0410419031977653,0.0006103515625,0.10056929982564951
0.03,0.0410292223095893,0.0006103515625,0.09953094085007165
0.0304999999999999,0.0410162545740604,0.0,0.09836107347757032
0.031,0.0410035029053688,0.00030517578125,0.0973168747174306
0.0314999999999999,0.0409910045564174,0.0006103515625,0.09638809327351919
0.032,0.0409783907234668,0.0006103515625,0.09538645343148863
0.0324999999999999,0.0409654900431633,0.00030517578125,0.09425296384629994
0.033,0.0409527495503425,0.0,0.09321678323008054
0.0334999999999999,0.0409399941563606,0.0,0.09217933726745516
0.034,0.040927305817604,0.00030517578125,0.09117801712743158
0.0344999999999999,0.0409145802259445,-0.00030517578125,0.09016025830527229
0.035,0.0409019589424133,0.00030517578125,0.08919360249484394
0.0354999999999999,0.0408890470862388,0.00091552734375,0.0880960545483928
0.036,0.0408764332532882,0.0006103515625,0.08714978005621642
0.0364999999999999,0.0408639423549175,0.00030517578125,0.08624969900287266
0.037,0.0408509857952594,0.00091552734375,0.08513684374435203
0.0374999999999999,0.0408381894230842,0.0,0.08412321863356712
0.038,0.0408252775669097,0.00030517578125,0.08307033326176257
0.0384999999999999,0.0408127307891845,0.0,0.08219007011171188
0.039,0.0407999493181705,0.00030517578125,0.08119648552347103
0.0394999999999999,0.0407872572541236,0.0,0.0802495993180065
0.04,0.0407744646072387,0.0,0.07926272705856528
0.0404999999999999,0.040761575102806,-0.00030517578125,0.07824610474794298
0.041,0.0407488346099853,0.0006103515625,0.07730676314979953
0.0414999999999999,0.0407361462712287,0.0,0.07639036996481313
0.042,0.040723655372858,0.00091552734375,0.07555347325810359
0.0424999999999999,0.0407106950879097,0.00030517578125,0.07451221121291036
0.043,0.0406979918479919,0.00030517578125,0.07360026910826935
0.0434999999999999,0.0406850427389144,0.0006103515625,0.07259149298772063
0.044,0.0406725034117698,0.00030517578125,0.07176534832315999
0.0444999999999999,0.0406597219407558,0.00030517578125,0.0708308250295723
0.045,0.0406468287110328,0.00091552734375,0.06986206131086911
0.0454999999999999,0.0406339205801487,0.00030517578125,0.06890322905782542
0.046,0.0406213961541652,0.00091552734375,0.06810683747499248
0.0464999999999999,0.0406086705625057,0.001220703125,0.06721860149982203
0.047,0.0405958369374275,0.0006103515625,0.06629365581948893
0.0474999999999999,0.0405829548835754,0.0006103515625,0.06536165320029193
0.048,0.0405704416334629,0.00030517578125,0.0645820903548481
0.0484999999999999,0.0405576825141906,0.00030517578125,0.06369742836519258
0.049,0.0405447147786617,0.00030517578125,0.06274233365366468
0.0494999999999999,0.0405319854617118,0.00091552734375,0.061896218829876455
0.05,0.0405192151665687,0.0006103515625,0.06103644200656965
0.0504999999999999,0.040506538003683,0.00091552734375,0.060216217661165604
0.051,0.0404935143887996,0.00091552734375,0.05926933732216238
0.0514999999999999,0.0404808148741722,0.0006103515625,0.058461845282783996
0.052,0.0404679179191589,0.0006103515625,0.057582744093998064
0.0524999999999999,0.0404549278318882,0.0006103515625,0.05668221438372794
0.053,0.0404422581195831,0.00030517578125,0.055910113183506395
0.0534999999999999,0.0404297299683094,0.0006103515625,0.05518320274392661
0.054,0.0404167063534259,0.00030517578125,0.05427299485146951
0.0544999999999999,0.0404037646949291,0.00091552734375,0.05341168092220646
0.055,0.0403911881148815,0.0,0.05268789888932346
0.0554999999999999,0.040378738194704,0.0006103515625,0.05199868994167251
0.056,0.0403659977018833,0.0,0.05119838037772186
0.0564999999999999,0.0403531491756439,0.0,0.05036773401236528
0.057,0.0403405725955963,0.0006103515625,0.04964041264482633
0.0574999999999999,0.040327675640583,0.0006103515625,0.04880249948787028
0.058,0.0403151363134384,0.0006103515625,0.04809740013551657
0.0584999999999999,0.0403023473918437,0.00030517578125,0.04730491220458256
0.059,0.040289718657732,0.0,0.04657482178508989
0.0595,0.0402764938771724,0.0,0.04565212021016737
0.06,0.0402641780674457,0.00030517578125,0.04505059649331495
0.0605,0.0402515232563018,0.0006103515625,0.04432346938439697
0.061,0.0402386635541915,0.0006103515625,0.043534788700667224
0.0615,0.0402256846427917,0.0006103515625,0.04272113564971199
0.062,0.0402131751179695,0.0006103515625,0.04206989019533107
0.0625,0.0402003489434719,0.00030517578125,0.041314473823473884
0.0629999999999999,0.0401874966919422,0.00091552734375,0.04056021990241487
0.0635,0.0401750653982162,0.00091552734375,0.039943917519575774
0.0639999999999999,0.0401622280478477,0.00030517578125,0.039196275622147524
0.0645,0.0401497818529605,0.00030517578125,0.038576473273529484
0.0649999999999999,0.040136843919754,-0.00030517578125,0.03780454744444065
0.0655,0.0401243194937706,0.00030517578125,0.03717002745749639
0.0659999999999999,0.0401113517582416,0.00030517578125,0.036404080969204396
0.0665,0.0400985591113567,0.0006103515625,0.03570490640243433
0.0669999999999999,0.0400858409702777,0.00030517578125,0.035034679572425724
0.0675,0.0400729998946189,0.0006103515625,0.03433385037982823
0.0679999999999999,0.0400604456663131,0.0006103515625,0.03372295975196073
0.0685,0.0400474220514297,0.001220703125,0.03297925406475397
0.0689999999999999,0.0400349982082843,0.001220703125,0.03241708059797767
0.0695,0.0400219708681106,0.0006103515625,0.03168320573435053
0.0699999999999999,0.0400092750787735,0.00030517578125,0.031054852900468704
0.0705,0.0399966575205326,0.0006103515625,0.030450579613947083
0.0709999999999999,0.0399838387966156,0.0,0.029793744242911514
0.0715,0.0399712286889553,0.0,0.0292000231102485
0.0719999999999999,0.0399582833051681,0.00030517578125,0.028519870278308632
0.0725,0.0399459600448608,0.0006103515625,0.028012260934321884
0.0729999999999999,0.0399330742657184,0.0006103515625,0.02735369930173745
0.0735,0.0399201698601245,0.00030517578125,0.02670175212666088
0.0739999999999999,0.0399075038731098,0.0,0.026120326036979075
0.0745,0.0398945398628711,0.0006103515625,0.025468398215321954
0.0749999999999999,0.0398821905255317,0.00030517578125,0.02497810975494761
0.0755,0.0398694686591625,0.0006103515625,0.024391658625951503
0.0759999999999999,0.0398565679788589,0.0,0.023768644328725785
0.0765,0.0398436710238456,0.0,0.023157322575978564
0.0769999999999999,0.0398309081792831,-0.00030517578125,0.022586832964527622
0.0775,0.0398183651268482,0.0006103515625,0.02207267121934735
0.0779999999999999,0.0398054346442222,0.00030517578125,0.021470443462872683
0.0785,0.0397929362952709,0.0006103515625,0.02097595556441925
0.0789999999999999,0.0397799424827098,0.0006103515625,0.020371067774145463
0.0795,0.0397672019898891,0.00091552734375,0.019833816213766304
0.0799999999999999,0.0397545769810676,0.00030517578125,0.01932659437124155
0.0805,0.0397420190274715,0.00030517578125,0.018836401918084073
0.0809999999999999,0.039729006588459,0.0,0.01825206219063713
0.0815,0.0397165790200233,0.0006103515625,0.017801543482707537
0.0819999999999999,0.0397034138441085,0.00030517578125,0.017198724119366855
0.0825,0.0396910086274147,0.00091552734375,0.016764775355630687
0.0829999999999999,0.0396776869893074,0.0006103515625,0.016147085584851485
0.0835,0.0396652705967426,0.00091552734375,0.01572466772873241
0.0839999999999999,0.0396521985530853,0.001220703125,0.015174547739672606
0.0845,0.0396393798291683,0.0006103515625,0.014684719851363943
0.0849999999999999,0.0396268181502819,0.00091552734375,0.01424957510231109
0.0855,0.0396137423813343,0.00030517578125,0.013721714894893178
0.0859999999999999,0.0396015122532844,0.0006103515625,0.01335835489166972
0.0865,0.0395883508026599,0.0006103515625,0.012825330282445585
0.0869999999999999,0.0395760051906108,0.00030517578125,0.012448212153358866
0.0875,0.039563201367855,0.00030517578125,0.011991087756904129
0.0879999999999999,0.0395504049956798,0.0006103515625,0.011542520146209018
0.0885,0.0395376719534397,0.0006103515625,0.01111155547654141
0.0889999999999999,0.0395248644053936,-0.00030517578125,0.010674431260017691
0.0895,0.0395123586058616,0.00030517578125,0.010292691738153996
0.0899999999999999,0.0394994802772998,0.0006103515625,0.009855378340141082
0.0905,0.0394867435097694,0.0006103515625,0.009448393958986017
0.0909999999999999,0.0394741855561733,0.00091552734375,0.009074678282263215
0.0915,0.0394612476229667,0.00030517578125,0.008649103782354414
0.0919999999999999,0.039448507130146,0.00030517578125,0.008261433546388666
0.0925,0.0394358411431312,0.00091552734375,0.007890896202842761
0.0929999999999999,0.0394229590892791,0.00030517578125,0.007496494985793421
0.0935,0.0394104607403278,0.00030517578125,0.007162124418805206
0.0939999999999999,0.0393978133797645,0.00030517578125,0.006812177647038258
0.0945,0.0393848270177841,0.00030517578125,0.006425175165107709
0.0949999999999999,0.0393721535801887,0.0006103515625,0.006087178183626748
0.0955,0.0393596813082695,0.00030517578125,0.005779837394750672
0.0959999999999999,0.0393468812108039,0.00030517578125,0.0054385479692031355
0.0965,0.0393336080014705,0.0006103515625,0.005052211192247953
0.0969999999999999,0.0393209531903266,0.0006103515625,0.00474745415101862
0.0975,0.0393083356320858,0.0006103515625,0.004453268884427279
0.0979999999999999,0.0392958857119083,0.0006103515625,0.004182847777212851
0.0985,0.0392827093601226,0.0006103515625,0.003845452391570888
0.0989999999999999,0.0392701476812362,0.0,0.003579566172724649
0.0995,0.0392574444413185,0.0006103515625,0.0033072314562850825
0.0999999999999999,0.0392446592450141,0.00091552734375,0.0030359482743720577
0.1005,0.0392320491373539,0.0006103515625,0.002788727101723384
0.1009999999999999,0.0392191931605339,0.0,0.002529586062916038
0.1015,0.0392060801386833,0.00030517578125,0.002261398122704288
0.1019999999999999,0.0391937606036663,0.0,0.0020637944472325855
0.1025,0.0391807369887828,0.00091552734375,0.0018237412411381125
0.1029999999999999,0.0391681119799613,0.00030517578125,0.0016222600595655703
0.1035,0.0391555055975914,0.00030517578125,0.0014312984552944609
0.1039999999999999,0.0391429625451564,0.00091552734375,0.0012535620077309207
0.1045,0.0391300469636917,0.00030517578125,0.0010657156807292111
0.1049999999999999,0.039117332547903,0.0006103515625,0.0009009191109622842
0.1055,0.0391045957803726,0.0006103515625,0.0007470402588182026
0.1059999999999999,0.0390916392207145,0.0006103515625,0.000597087353798613
0.1065,0.0390789695084095,0.0006103515625,0.00047231750074061866
0.1069999999999999,0.0390662476420402,0.00030517578125,0.0003589968289376959
0.1075,0.039053414016962,0.0,0.0002569248117663503
0.1079999999999999,0.0390408188104629,0.0006103515625,0.00017579064830659308
0.1085,0.039027914404869,0.0006103515625,0.00010386549034782613
0.1089999999999999,0.0390151403844356,0.00091552734375,5.1565324035048846e-05
0.1095,0.0390024073421955,0.00030517578125,1.7237098667791396e-05
0.1099999999999999,0.0389894619584083,0.00030517578125,8.037445499737004e-07
0.1105,0.0389769226312637,0.0006103515625,0.0
0.1109999999999999,0.0389641635119915,0.00091552734375,0.0
0.1115,0.0389514304697513,0.00030517578125,0.0
0.1119999999999999,0.0389384999871254,-0.00030517578125,0.0
0.1125,0.0389258451759815,0.00030517578125,0.0
0.1129999999999999,0.0389133170247077,0.00030517578125,0.0
0.1135,0.038899939507246,0.00030517578125,0.0
0.1139999999999999,0.0388874411582946,0.0006103515625,0.0
0.1145,0.0388744287192821,0.00091552734375,0.0
0.1149999999999999,0.0388618782162666,0.0006103515625,0.0
0.1155,0.0388490930199623,0.00030517578125,0.0
0.1159999999999999,0.0388363972306251,0.0006103515625,0.0
0.1165,0.0388239026069641,0.001220703125,0.0
0.1169999999999999,0.0388110429048538,0.00030517578125,0.0
0.1175,0.0387984216213226,0.00030517578125,0.0
0.118,0.0387856513261795,0.00030517578125,0.0
0.1185,0.0387728549540042,0.00091552734375,0.0
0.119,0.0387601777911186,0.00030517578125,0.0
0.1195,0.0387473590672016,0.001220703125,0.0
0.12,0.0387347266077995,0.00030517578125,0.0
0.1205,0.0387220121920108,0.0006103515625,0.0
0.121,0.0387093983590602,0.00030517578125,0.0
0.1215,0.03869653865695,0.0006103515625,0.0
0.122,0.0386838652193546,0.00030517578125,0.0
0.1225,0.0386708453297615,0.001220703125,0.0
0.123,0.0386582687497139,0.00091552734375,0.0
0.1235,0.0386457107961177,0.00030517578125,0.0
0.124,0.0386328026652336,0.0006103515625,0.0
0.1245,0.0386201627552509,0.0006103515625,0.0
0.125,0.0386073887348175,0.00030517578125,0.0
0.1254999999999999,0.0385948978364467,0.0,0.0
0.126,0.0385819301009178,0.00030517578125,0.0
0.1264999999999999,0.0385694801807403,0.0006103515625,0.0
0.127,0.0385563783347606,0.00030517578125,0.0
0.1274999999999999,0.0385436862707138,0.0,0.0
0.128,0.0385308563709259,0.00030517578125,0.0
0.1284999999999999,0.0385180786252021,0.00091552734375,0.0
0.129,0.0385055840015411,0.00091552734375,0.0
0.1294999999999999,0.0384927615523338,0.0,0.0
0.13,0.038480021059513,0.0,0.0
0.1304999999999999,0.038467202335596,0.0006103515625,0.0
0.131,0.0384544990956783,0.00091552734375,0.0
0.1314999999999999,0.0384414047002792,0.0006103515625,0.0
0.132,0.0384289287030696,0.0006103515625,0.0
0.1324999999999999,0.0384159870445728,0.0006103515625,0.0
0.133,0.0384033434092998,0.0,0.0
0.1334999999999999,0.0383907444775104,0.0,0.0
0.134,0.0383781567215919,0.00030517578125,0.0
0.1344999999999999,0.0383652262389659,0.0,0.0
0.135,0.0383524671196937,0.0006103515625,0.0
0.1354999999999999,0.0383399873971939,-0.00030517578125,0.0
0.136,0.0383271276950836,0.0006103515625,0.0
0.1364999999999999,0.0383142866194248,0.00030517578125,0.0
0.137,0.0383014045655727,0.0,0.0
0.1374999999999999,0.0382887348532676,0.00091552734375,0.0
0.138,0.0382761098444461,0.0006103515625,0.0
0.1384999999999999,0.0382633022964,0.00030517578125,0.0
0.139,0.0382503159344196,0.0006103515625,0.0
0.1394999999999999,0.0382377691566944,0.0006103515625,0.0
0.14,0.0382249094545841,0.00091552734375,0.0
0.1404999999999999,0.0382120721042156,0.00030517578125,0.0
0.141,0.0381995365023613,0.00091552734375,0.0
0.1414999999999999,0.0381865836679935,0.00091552734375,0.0
0.142,0.038173820823431,0.0006103515625,0.0
0.1424999999999999,0.0381612889468669,0.0,0.0
0.143,0.0381485074758529,0.00091552734375,0.0
0.1434999999999999,0.0381357781589031,0.0006103515625,0.0
0.144,0.0381229445338249,0.0,0.0
0.1444999999999999,0.0381103605031967,0.0,0.0
0.145,0.0380971729755401,0.0006103515625,0.0
0.1454999999999999,0.0380843318998813,0.0006103515625,0.0
0.146,0.0380718186497688,0.0006103515625,0.0
0.1464999999999999,0.0380588993430137,0.00030517578125,0.0
0.147,0.0380463637411594,0.00030517578125,0.0
0.1474999999999999,0.0380334556102752,0.0,0.0
0.148,0.0380210056900978,0.0006103515625,0.0
0.1484999999999999,0.0380077734589576,0.00091552734375,0.0
0.149,0.0379953607916832,0.0006103515625,0.0
0.1494999999999999,0.0379824303090572,0.00091552734375,0.0
0.15,0.0379698388278484,0.0006103515625,0.0
0.1504999999999999,0.0379569306969642,0.0006103515625,0.0
0.151,0.0379442386329174,0.00091552734375,0.0
0.1514999999999999,0.037931703031063,0.00030517578125,0.0
0.152,0.0379188433289527,0.00030517578125,0.0
0.1524999999999999,0.0379060618579387,-0.00030517578125,0.0
0.153,0.0378932505846023,0.0006103515625,0.0
0.1534999999999999,0.037880640476942,0.00030517578125,0.0
0.154,0.0378680005669593,0.0006103515625,0.0
0.1544999999999999,0.037855289876461,0.0006103515625,0.0
0.155,0.0378423519432544,0.0006103515625,0.0
0.1554999999999999,0.0378297679126262,0.00030517578125,0.0
0.156,0.0378168746829032,0.0006103515625,0.0
0.1564999999999999,0.0378044322133064,0.00030517578125,0.0
0.157,0.0377916172146797,0.0006103515625,0.0
0.1574999999999999,0.0377787686884403,0.00091552734375,0.0
0.158,0.0377659872174263,0.0006103515625,0.0
0.1584999999999999,0.0377532728016376,0.0,0.0
0.159,0.0377404764294624,0.00091552734375,0.0
0.1594999999999999,0.0377275720238685,0.00030517578125,0.0
0.16,0.0377149693667888,0.00091552734375,0.0
0.1604999999999999,0.0377021506428718,0.00091552734375,0.0
0.161,0.0376894399523735,0.00091552734375,0.0
0.1614999999999999,0.0376767292618751,0.001220703125,0.0
0.162,0.0376640297472476,0.0006103515625,0.0
0.1624999999999999,0.0376509949564933,0.00030517578125,0.0
