time [s],Lmtc [m],STIM [ ],Fsee [N]
0.0,0.043548934161663,0.00030517578125,0.43359871669917543
0.0004999999999999,0.0435484535992145,0.00091552734375,0.43311415886296367
0.001,0.0435487143695354,0.0006103515625,0.43343123746539974
0.0014999999999999,0.0435485281050205,0.00091552734375,0.4332613655295666
0.002,0.0435485951602458,0.00030517578125,0.4333655771985539
0.0024999999999999,0.0435486063361167,0.0006103515625,0.4334000084829583
0.003,0.0435488186776638,0.0006103515625,0.433634087887294
0.0034999999999999,0.0435484237968921,0.00030517578125,0.4332292038812669
0.004,0.0435485914349556,0.00091552734375,0.43343694454567167
0.0044999999999999,0.0435484163463115,0.00091552734375,0.43327427523718737
0.005,0.0435487069189548,0.0006103515625,0.4335997239290195
0.0054999999999999,0.0435484610497951,-0.00030517578125,0.43334721457417724
0.006,0.0435486212372779,0.00091552734375,0.43353245377714084
0.0064999999999999,0.0435486212372779,0.00030517578125,0.43353465739012176
0.007,0.0435487702488899,0.00030517578125,0.4336899944183626
0.0074999999999999,0.0435487516224384,0.00030517578125,0.4336630455534798
0.008,0.043548684567213,0.0006103515625,0.4335875881215701
0.0084999999999999,0.0435483083128929,0.0006103515625,0.43320470387972787
0.009,0.0435485653579235,0.0,0.4335032228199444
0.0094999999999999,0.0435489118099212,0.0006103515625,0.43386524024106815
0.01,0.0435486361384391,0.00091552734375,0.4335616315749958
0.0104999999999999,0.0435484237968921,0.0006103515625,0.4333473750136684
0.011,0.0435483530163764,0.00030517578125,0.4332999359418961
0.0114999999999999,0.0435477457940578,0.0006103515625,0.4327234183975441
0.012,0.0435462109744548,0.0006103515625,0.4312846559208213
0.0124999999999999,0.0435441769659519,0.00030517578125,0.4295405189040293
0.013,0.0435402989387512,0.0006103515625,0.4262219308457904
0.0134999999999999,0.0435349568724632,0.001220703125,0.4220546872706532
0.014,0.0435281656682491,0.0006103515625,0.4173893680387536
0.0144999999999999,0.0435204058885574,0.0,0.41309150328766464
0.015,0.0435116924345493,0.00030517578125,0.40936416324544855
0.0154999999999999,0.0435022711753845,0.0006103515625,0.4063665858794884
0.016,0.0434927977621555,0.00030517578125,0.4042570555514494
0.0164999999999999,0.0434828959405422,0.00091552734375,0.40223883992699533
0.017,0.043472334742546,0.00030517578125,0.4000659693123655
0.0174999999999999,0.0434619858860969,0.0006103515625,0.39839156469312864
0.018,0.0434514544904232,0.0006103515625,0.39660490543065713
0.0184999999999999,0.0434409752488136,0.00030517578125,0.3949334363264019
0.019,0.0434303320944309,0.0,0.39314921554821675
0.0194999999999999,0.0434202030301094,0.00030517578125,0.3917889382650388
0.02,0.0434093214571476,0.00030517578125,0.38974358540139764
0.0204999999999999,0.0433989986777305,0.00030517578125,0.3883168904354385
0.021,0.0433886758983135,0.00030517578125,0.38674651962622897
0.0214999999999999,0.0433785878121852,0.00030517578125,0.3852987062610222
0.022,0.043368000537157,0.00030517578125,0.38342261129392446
0.0224999999999999,0.0433577932417392,0.0006103515625,0.381948021178215
0.023,0.0433476567268371,0.00030517578125,0.38044045808069826
0.0234999999999999,0.043337520211935,0.0,0.37888476640185054
0.024,0.0433273129165172,0.0006103515625,0.37726903024723357
0.0244999999999999,0.0433172322809696,0.0006103515625,0.37576728215099303
0.025,0.0433073379099369,0.001220703125,0.37435113335962167
0.0254999999999999,0.043296817690134,0.00030517578125,0.37242850864844634
0.026,0.043286956846714,0.0006103515625,0.371153864191355
0.0264999999999999,0.0432767756283283,0.00030517578125,0.3695038470536441
0.027,0.0432668514549732,0.0006103515625,0.36808016076882916
0.0274999999999999,0.0432561859488487,0.0,0.3661001204852663
0.028,0.0432462990283966,0.0,0.364864853934007
0.0284999999999999,0.0432361289858818,0.00030517578125,0.3632686888066274
0.029,0.0432261452078819,0.00030517578125,0.3618252394001129
0.0294999999999999,0.0432158075273036,0.00030517578125,0.3601039464091724
0.03,0.0432057864964008,0.00091552734375,0.35869161063896593
0.0304999999999999,0.0431957468390464,0.0006103515625,0.3572041107888744
0.031,0.0431855618953704,-0.00030517578125,0.35560128676206815
0.0314999999999999,0.0431753620505332,0.0,0.3540333756841678
0.032,0.0431654006242752,0.0006103515625,0.3526482504816965
0.0324999999999999,0.0431551858782768,0.0006103515625,0.35102031915670573
0.033,0.0431450940668582,0.0006103515625,0.3495415257408417
0.0334999999999999,0.0431350693106651,0.0006103515625,0.3480920152064606
0.034,0.0431249812245368,0.00030517578125,0.3465687116939606
0.0344999999999999,0.0431147664785385,0.00030517578125,0.34497892713574646
0.035,0.0431050807237625,0.0006103515625,0.34379242294721796
0.0354999999999999,0.043095126748085,0.0006103515625,0.34227866665415574
0.036,0.0430847592651844,0.0006103515625,0.3405038089371084
0.0364999999999999,0.0430750213563442,0.00091552734375,0.3393061484692624
0.037,0.0430644787847995,0.0006103515625,0.33743229336031344
0.0374999999999999,0.0430546216666698,0.0006103515625,0.33620774197118125
0.038,0.0430445484817028,0.00030517578125,0.33471172127747245
0.0384999999999999,0.0430341698229312,0.0006103515625,0.33301902850352005
0.039,0.0430239401757717,0.0006103515625,0.3315328718790397
0.0394999999999999,0.0430141389369964,0.00030517578125,0.3303389061162623
0.04,0.0430041961371898,0.0006103515625,0.32891624015437926
0.0404999999999999,0.0429939925670623,0.00030517578125,0.32730839848716387
0.041,0.0429841056466102,0.0006103515625,0.3259958385697445
0.0414999999999999,0.0429738499224185,0.00030517578125,0.3243665686885864
0.042,0.0429636687040329,0.00091552734375,0.3228707637310529
0.0424999999999999,0.0429535247385501,-0.00030517578125,0.32142756001758377
0.043,0.0429438091814518,0.001220703125,0.3202662022893507
0.0434999999999999,0.0429335087537765,0.0,0.31858983378337064
0.044,0.0429231859743595,0.00152587890625,0.31699496106322417
0.0444999999999999,0.0429134033620357,0.00091552734375,0.3158446077280686
0.045,0.0429032817482948,0.00030517578125,0.3143358663239693
0.0454999999999999,0.042893286794424,0.0,0.3129567276075463
0.046,0.0428828857839107,0.00091552734375,0.3112735018328637
0.0464999999999999,0.0428730547428131,0.00091552734375,0.3101056219433699
0.047,0.0428628027439117,0.0,0.30852926351474597
0.0474999999999999,0.0428529605269432,0.0006103515625,0.3073130304475345
0.048,0.0428426936268806,0.00030517578125,0.30571730319483365
0.0484999999999999,0.0428327322006225,0.0006103515625,0.3044191753075437
0.049,0.042822279036045,0.00030517578125,0.3027310239136786
0.0494999999999999,0.0428123474121093,0.0,0.3015277791822477
0.05,0.0428021401166915,0.0006103515625,0.30004902895034063
0.0504999999999999,0.0427916869521141,0.00030517578125,0.298432134143383
0.051,0.042781762778759,0.00030517578125,0.29726403707350024
0.0514999999999999,0.0427717044949531,-0.00030517578125,0.2959034881127529
0.052,0.042761918157339,0.0006103515625,0.2947268562801644
0.0524999999999999,0.0427515432238578,0.0006103515625,0.2930589951878743
0.053,0.0427415966987609,0.0006103515625,0.29180736586816464
0.0534999999999999,0.0427315942943096,0.00030517578125,0.29046601966965047
0.054,0.0427214913070201,0.00030517578125,0.28904923268602856
0.0544999999999999,0.0427112691104412,0.00091552734375,0.287571386607187
0.055,0.0427013374865055,0.0006103515625,0.2863363418965049
0.0554999999999999,0.0426913127303123,0.00030517578125,0.28498606207927996
0.056,0.0426810793578624,0.0006103515625,0.2834924835259237
0.0564999999999999,0.0426710732281208,0.00030517578125,0.28221159453062256
0.057,0.0426609925925731,0.00030517578125,0.28085004430073907
0.0574999999999999,0.0426509454846382,0.00030517578125,0.2795175459215609
0.058,0.0426407605409622,0.00030517578125,0.2780876434071034
0.0584999999999999,0.0426306165754795,0.00091552734375,0.2767199347455386
0.059,0.0426207706332206,0.00030517578125,0.2755658517547629
0.0595,0.0426105223596096,0.00030517578125,0.27406634133421753
0.06,0.0426005311310291,0.0006103515625,0.27281121946806297
0.0605,0.0425901561975479,0.0006103515625,0.2712647758879462
0.061,0.0425802282989025,0.00030517578125,0.27010241881222374
0.0615,0.0425701402127742,0.0006103515625,0.2687673558348951
0.062,0.0425603203475475,-0.00030517578125,0.26762321063284633
0.0625,0.04255011677742,0.0006103515625,0.26615598332964696
0.0629999999999999,0.0425402112305164,0.00030517578125,0.26495395343815153
0.0635,0.0425299368798732,0.00030517578125,0.2634634965136128
0.0639999999999999,0.0425197966396808,0.0006103515625,0.26213355864719984
0.0645,0.0425096079707145,0.00030517578125,0.2607788911114719
0.0649999999999999,0.0424999110400676,0.00030517578125,0.25977262760179426
0.0655,0.0424897521734237,0.0006103515625,0.2583498108420484
0.0659999999999999,0.042479507625103,0.00030517578125,0.25692199371145746
0.0665,0.0424694120883941,0.0006103515625,0.2556443551769027
0.0669999999999999,0.042459238320589,0.00030517578125,0.25430779377712626
0.0675,0.0424492172896862,0.0006103515625,0.25309110300532967
0.0679999999999999,0.0424390360713005,0.0,0.25174110105676656
0.0685,0.0424292087554931,0.0006103515625,0.25065365746409446
0.0689999999999999,0.0424188375473022,-0.00030517578125,0.24913747301993805
0.0695,0.0424090847373008,0.0006103515625,0.24812161743109112
0.0699999999999999,0.0423988290131092,0.00091552734375,0.2466876979122072
0.0705,0.0423885062336921,0.0,0.24526961031146174
0.0709999999999999,0.0423784665763378,0.00030517578125,0.24408775805202018
0.0715,0.0423684231936931,0.00030517578125,0.2428743107561534
0.0719999999999999,0.0423583947122097,-0.00030517578125,0.24165704097140467
0.0725,0.0423482358455657,0.0,0.24034211882125647
0.0729999999999999,0.0423382334411144,0.0006103515625,0.23915260293962962
0.0735,0.0423281677067279,0.00091552734375,0.23790296704034627
0.0739999999999999,0.0423180237412452,0.0006103515625,0.23660607897727046
0.0745,0.0423079654574394,0.00030517578125,0.2353855515467268
0.0749999999999999,0.042297825217247,0.00030517578125,0.23410417005522816
0.0755,0.0422880165278911,0.0006103515625,0.23305701670639378
0.0759999999999999,0.0422776713967323,0.00091552734375,0.23160211480603138
0.0765,0.0422677733004093,0.00030517578125,0.23051608147018235
0.0769999999999999,0.0422574616968631,0.0006103515625,0.22911612056651232
0.0775,0.0422475114464759,0.0006103515625,0.22801045460243266
0.0779999999999999,0.0422374047338962,0.0006103515625,0.22676706772322952
0.0785,0.0422273240983486,0.0006103515625,0.22555111246551965
0.0789999999999999,0.0422171801328659,0.0,0.22429628604972116
0.0795,0.0422071479260921,0.0006103515625,0.22312929791771458
0.0799999999999999,0.042197149246931,0.0006103515625,0.22197322527464608
0.0805,0.0421869866549968,0.0006103515625,0.22069878130527792
0.0809999999999999,0.0421768352389335,0.00030517578125,0.21945656969606822
0.0815,0.042166780680418,-0.00030517578125,0.21829164013406419
0.0819999999999999,0.0421566627919673,0.0,0.2170786955100548
0.0825,0.0421465002000331,0.00030517578125,0.21584512766316996
0.0829999999999999,0.0421365462243557,0.0006103515625,0.2147583301393093
0.0835,0.0421264804899692,0.0006103515625,0.21357182381760434
0.0839999999999999,0.0421163663268089,0.0006103515625,0.2123603596364437
0.0845,0.0421061366796493,0.0,0.2110877039865534
0.0849999999999999,0.0420961566269397,0.0,0.21000252455041576
0.0855,0.042086012661457,0.00030517578125,0.20878852091775693
0.0859999999999999,0.0420758165419101,0.0,0.20755639067455298
0.0865,0.0420658253133297,0.0006103515625,0.20647395758958956
0.0869999999999999,0.0420558415353298,0.0006103515625,0.20537507181531559
0.0875,0.0420455336570739,0.00091552734375,0.20405724127753982
0.0879999999999999,0.0420355945825576,0.00030517578125,0.20301914133776172
0.0885,0.0420253127813339,0.0006103515625,0.2017344016433728
0.0889999999999999,0.0420153625309467,0.00030517578125,0.20069911785425743
0.0895,0.0420047678053379,0.0006103515625,0.19923150746579604
0.0899999999999999,0.0419949479401111,0.00030517578125,0.1983336241823669
0.0905,0.0419849343597888,0.0006103515625,0.19724495842334083
0.0909999999999999,0.0419749468564987,0.0006103515625,0.19616158122924465
0.0915,0.0419648997485637,0.00030517578125,0.19502993137877583
0.0919999999999999,0.0419547297060489,0.0006103515625,0.1938271481641689
0.0925,0.0419445931911468,0.0,0.1926687002164377
0.0929999999999999,0.0419343374669551,0.0,0.19144662426572603
0.0935,0.0419245064258575,0.0,0.19051360362652614
0.0939999999999999,0.0419145561754703,0.0006103515625,0.18946051353664778
0.0945,0.0419042147696018,0.0006103515625,0.18815538187300462
0.0949999999999999,0.0418942831456661,0.00030517578125,0.18715308333760344
0.0955,0.0418842881917953,0.00030517578125,0.18608537452464619
0.0959999999999999,0.0418741293251514,0.00030517578125,0.18491077599245934
0.0965,0.0418643504381179,0.0,0.18398873018228426
0.0969999999999999,0.0418542772531509,0.0006103515625,0.1828469332475513
0.0975,0.0418442077934742,0.0,0.1817243235448355
0.0979999999999999,0.0418339148163795,0.0,0.1804793415871922
0.0985,0.0418239533901214,0.00030517578125,0.17947693311545526
0.0989999999999999,0.0418138615787029,0.00030517578125,0.17837795432053527
0.0995,0.0418035462498664,0.00030517578125,0.17715248885906815
0.0999999999999999,0.0417935922741889,0.0006103515625,0.17617791484481796
0.1005,0.0417838580906391,0.0006103515625,0.17530880973112173
0.1009999999999999,0.0417734310030937,0.0,0.17398158528332516
0.1015,0.0417636446654796,0.00030517578125,0.1731025641825798
0.1019999999999999,0.0417537167668342,0.0,0.17209695390803145
0.1025,0.0417432785034179,0.0,0.1707805849113308
0.1029999999999999,0.0417332388460636,0.0006103515625,0.16976406275758044
0.1035,0.0417232066392898,0.0,0.1687431232666619
0.1039999999999999,0.0417131334543228,0.0006103515625,0.16769389269260562
0.1045,0.0417027659714221,0.00030517578125,0.16647533528002142
0.1049999999999999,0.0416928753256797,0.0,0.16557508399582088
0.1055,0.0416829138994216,0.0006103515625,0.16459932993992693
0.1059999999999999,0.0416730120778083,0.0,0.16364515368075916
0.1065,0.0416629947721958,0.00030517578125,0.1626075809001418
0.1069999999999999,0.0416525900363922,0.0,0.1613546215683061
0.1075,0.0416422672569751,0.0006103515625,0.16020546567167165
0.1079999999999999,0.041632205247879,0.00030517578125,0.15923148494157538
0.1085,0.0416224934160709,0.00030517578125,0.15844532924010826
0.1089999999999999,0.0416122563183307,0.00030517578125,0.1573084280320787
0.1095,0.0416021011769771,0.00091552734375,0.15624936249426838
0.1099999999999999,0.0415923446416854,0.00091552734375,0.15542856336433145
0.1105,0.0415819324553012,0.00030517578125,0.15419503945434124
0.1109999999999999,0.0415720343589782,0.0,0.15330678614366666
0.1115,0.0415616817772388,0.00030517578125,0.15213782664418152
0.1119999999999999,0.0415516756474971,0.0006103515625,0.15120255069109362
0.1125,0.0415416434407234,0.0006103515625,0.15023925180549683
0.1129999999999999,0.0415315106511116,0.0,0.149214377344054
0.1135,0.0415215566754341,0.0,0.1482984365831586
0.1139999999999999,0.0415114387869834,-0.00030517578125,0.14727731858758755
0.1145,0.0415014587342739,0.0,0.14634302428826448
0.1149999999999999,0.0414913706481456,0.0006103515625,0.14534151135177126
0.1155,0.0414812304079532,0.00030517578125,0.14431911752131485
0.1159999999999999,0.0414711982011795,0.0006103515625,0.14336840294923
0.1165,0.0414611250162124,0.0006103515625,0.1423927221696078
0.1169999999999999,0.0414512045681476,0.0006103515625,0.14150527474964258
0.1175,0.0414408035576343,0.0006103515625,0.14034195989954554
0.118,0.0414309240877628,0.00091552734375,0.1395064419841239
0.1185,0.0414208061993122,0.0006103515625,0.13851670581806338
0.119,0.0414108708500862,0.00030517578125,0.13763649517934912
0.1195,0.0414004102349281,-0.00030517578125,0.1364608073569573
0.12,0.0413907095789909,0.00030517578125,0.13574199897713718
0.1205,0.041380375623703,0.00030517578125,0.13463771004343383
0.121,0.0413701422512531,0.0006103515625,0.13362376902917242
0.1215,0.0413600876927375,0.00091552734375,0.1327217896422018
0.122,0.0413501150906086,0.00091552734375,0.13185698883899277
0.1225,0.0413399152457714,0.0006103515625,0.13085942214187077
0.123,0.0413297452032566,0.0006103515625,0.12989321538889356
0.1235,0.0413197204470634,0.0006103515625,0.1290128048202433
0.124,0.041309680789709,0.0006103515625,0.12811682400963276
0.1245,0.0412996560335159,0.00091552734375,0.12722536270745202
0.125,0.0412892028689384,0.00030517578125,0.12610737692660753
0.1254999999999999,0.0412795767188072,0.00030517578125,0.12546130745943454
0.126,0.0412692129611969,0.00091552734375,0.1243836505988025
0.1264999999999999,0.0412590205669403,0.00030517578125,0.12343113981038874
0.127,0.0412493385374546,0.00030517578125,0.12275078563103994
0.1274999999999999,0.0412390939891338,0.0006103515625,0.12174012891560622
0.128,0.0412285327911376,0.00030517578125,0.12059316971797707
0.1284999999999999,0.0412187539041042,0.0006103515625,0.11989548643980101
0.129,0.0412087477743625,0.00091552734375,0.11904591793461587
0.1294999999999999,0.0411984771490097,0.0006103515625,0.11805713088675358
0.13,0.0411883294582366,0.0006103515625,0.11715217610031797
0.1304999999999999,0.0411782376468181,0.0006103515625,0.11628122238283223
0.131,0.0411680303514003,0.0006103515625,0.11535207303350098
0.1314999999999999,0.0411580987274646,0.0006103515625,0.11457216569394521
0.132,0.0411483645439147,0.0006103515625,0.11387449133640393
0.1324999999999999,0.041138157248497,0.0006103515625,0.11291213592300185
0.133,0.0411280058324337,0.0006103515625,0.1119985737196764
0.1334999999999999,0.0411180518567562,0.00091552734375,0.11119435396425434
0.134,0.0411080457270145,0.00030517578125,0.11035722550534469
0.1344999999999999,0.0410978198051452,0.00030517578125,0.10941178293228479
0.135,0.0410877093672752,0.0,0.108541915422966
0.1354999999999999,0.0410777106881141,0.0006103515625,0.10773223767639642
0.136,0.0410676747560501,0.00030517578125,0.10689974004069212
0.1364999999999999,0.0410577245056629,-0.00030517578125,0.10610906586823692
0.137,0.041047628968954,0.0,0.10524280965498956
0.1374999999999999,0.0410374924540519,0.0,0.10436503647351077
0.138,0.0410271845757961,0.0006103515625,0.10341613152826218
0.1384999999999999,0.0410171300172805,0.0,0.10261114745945384
0.139,0.0410074293613433,0.0006103515625,0.10197152795261973
0.1394999999999999,0.0409971326589584,0.0006103515625,0.10101995685954022
0.14,0.0409872643649578,0.0,0.1002963119416516
0.1404999999999999,0.0409768968820571,0.00030517578125,0.09932459681630586
0.141,0.0409668385982513,0.0006103515625,0.0985270100962761
0.1414999999999999,0.040956724435091,0.0006103515625,0.09770308242247558
0.142,0.0409469753503799,0.00030517578125,0.09705395445212602
0.1424999999999999,0.0409364439547061,0.00030517578125,0.09601895228437039
0.143,0.0409264788031578,0.00030517578125,0.09528581181707665
0.1434999999999999,0.040916584432125,0.00030517578125,0.09457578950867737
0.144,0.0409064143896102,0.00030517578125,0.09372884889776967
0.1444999999999999,0.0408961288630962,0.0006103515625,0.0928412407633802
0.145,0.0408860109746456,0.0006103515625,0.09204723131500109
0.1454999999999999,0.04087620601058,0.0006103515625,0.0913977408590982
0.146,0.0408659875392913,0.0006103515625,0.09054291573182358
0.1464999999999999,0.0408559367060661,0.00091552734375,0.08977827782296728
0.147,0.0408459939062595,0.00030517578125,0.08906284717201492
0.1474999999999999,0.0408355630934238,0.0,0.08812352760767221
0.148,0.0408256538212299,0.0006103515625,0.0874450016109496
0.1484999999999999,0.0408153086900711,0.00030517578125,0.0865620290650825
0.149,0.0408055447041988,0.00030517578125,0.08595581493436344
0.1494999999999999,0.0407951101660728,0.00030517578125,0.08503356374103287
0.15,0.0407853387296199,0.0006103515625,0.0844285351906121
0.1504999999999999,0.0407751314342021,0.0,0.08361271488890903
0.151,0.0407649427652359,0.00030517578125,0.08281778875926046
0.1514999999999999,0.0407549515366554,0.0006103515625,0.08211760144092513
