time [s],Lmtc [m],STIM [ ],Fsee [N]
0.0,0.0480149984359741,0.0006103515625,0.23868287126842735
0.0004999999999999,0.0480148456990718,0.00030517578125,0.2385630017572295
0.001,0.0480149611830711,0.0006103515625,0.23866185361128947
0.0014999999999999,0.0480150170624256,0.00030517578125,0.2387073112292807
0.002,0.0480147115886211,0.00030517578125,0.23846671105024506
0.0024999999999999,0.0480149053037166,-0.00030517578125,0.2386342677785175
0.003,0.0480146668851375,0.0006103515625,0.23845129322601138
0.0034999999999999,0.0480151064693927,0.0006103515625,0.23881295627556104
0.004,0.0480148345232009,0.00030517578125,0.2385921454804641
0.0044999999999999,0.0480147488415241,0.0,0.23853120971889888
0.005,0.0480148717761039,0.0006103515625,0.2386379433796822
0.0054999999999999,0.0480148419737815,0.00030517578125,0.23861748283897735
0.006,0.0480147898197174,0.0,0.23858104412428893
0.0064999999999999,0.0480151213705539,0.00091552734375,0.23884875638240216
0.007,0.0480151064693927,0.00030517578125,0.23883013998527855
0.0074999999999999,0.048015046864748,0.0006103515625,0.23877683259457272
0.008,0.0480148829519748,0.00030517578125,0.23864294767367536
0.0084999999999999,0.048015009611845,0.00030517578125,0.2387450284887984
0.009,0.0480149649083614,0.0006103515625,0.23870678927946126
0.0094999999999999,0.0480144396424293,0.00091552734375,0.23829458518740956
0.01,0.0480141192674636,0.0006103515625,0.2380736155784014
0.0104999999999999,0.0480120591819286,0.0006103515625,0.23652005822008085
0.011,0.0480091162025928,0.00030517578125,0.23441211013268995
0.0114999999999999,0.0480043441057205,0.00030517578125,0.2311011320544697
0.012,0.0479978919029235,0.0006103515625,0.22686095142759066
0.0124999999999999,0.0479897372424602,0.0006103515625,0.22187983109666373
0.013,0.0479802452027797,0.0006103515625,0.2166537084955981
0.0134999999999999,0.0479694195091724,0.0006103515625,0.21143623683117702
0.014,0.0479578673839569,0.0006103515625,0.20687120317911625
0.0144999999999999,0.0479457378387451,0.00030517578125,0.20314334453037985
0.015,0.0479331314563751,0.00030517578125,0.2002190244294155
0.0154999999999999,0.0479200258851051,0.00030517578125,0.1978964569565586
0.016,0.0479071736335754,0.00091552734375,0.1963886021658712
0.0164999999999999,0.0478943176567554,0.00030517578125,0.19517397216390903
0.017,0.0478811040520668,0.0,0.19390957903524986
0.0174999999999999,0.0478682443499565,0.0006103515625,0.19299969213790524
0.018,0.0478555411100387,0.0006103515625,0.19217060608254385
0.0184999999999999,0.0478424206376075,0.0006103515625,0.19106592844531375
0.019,0.0478299707174301,0.00030517578125,0.19042206429508643
0.0194999999999999,0.0478169694542884,0.00030517578125,0.18934377867979738
0.02,0.0478046797215938,0.0006103515625,0.18874146183372414
0.0204999999999999,0.0477920807898044,0.00030517578125,0.18783292756660994
0.021,0.0477795414626598,0.0006103515625,0.18696699724975058
0.0214999999999999,0.0477673970162868,0.00030517578125,0.18631361494469034
0.022,0.0477546639740467,0.0006103515625,0.18523302615092394
0.0224999999999999,0.0477420017123222,0.00091552734375,0.18428084169900683
0.023,0.047729704529047,0.0006103515625,0.18356451062582868
0.0234999999999999,0.0477173179388046,0.0006103515625,0.18272981866993762
0.024,0.0477049313485622,0.00030517578125,0.1818818944484176
0.0244999999999999,0.0476922914385795,0.0006103515625,0.18088611522259498
0.025,0.04768006503582,0.0006103515625,0.18017734572177782
0.0254999999999999,0.0476674698293209,0.00030517578125,0.17920133726871562
0.026,0.0476549975574016,0.0,0.17834360842962044
0.0264999999999999,0.0476428642868995,0.0006103515625,0.17767585176818423
0.027,0.0476299971342086,0.00030517578125,0.17652399391319742
0.0274999999999999,0.0476175583899021,0.00030517578125,0.17572745392377373
0.028,0.0476054251194,0.0006103515625,0.17507545100004565
0.0284999999999999,0.0475928969681263,0.0006103515625,0.1741261434695742
0.029,0.0475807227194309,0.0006103515625,0.17341664332101936
0.0294999999999999,0.0475678220391273,0.00091552734375,0.17225349482512353
0.03,0.0475557371973991,0.00030517578125,0.17167036824726065
0.0304999999999999,0.0475433841347694,0.00091552734375,0.17084099290489216
0.031,0.047530461102724,0.00030517578125,0.16969616091539524
0.0314999999999999,0.0475185215473175,0.00091552734375,0.16921152706970213
0.032,0.0475056022405624,0.0,0.1680494598628797
0.0324999999999999,0.0474933944642543,0.0,0.16740644315017994
0.033,0.0474807061254978,0.00091552734375,0.16642488598528346
0.0334999999999999,0.0474687442183494,0.00091552734375,0.16589692715174537
0.034,0.0474562980234622,0.00030517578125,0.1649893651584478
0.0344999999999999,0.0474433898925781,0.00030517578125,0.1638668466623892
0.035,0.0474311038851738,0.0006103515625,0.16319793963501686
0.0354999999999999,0.047418437898159,0.00030517578125,0.16226304885947612
0.036,0.0474058613181114,0.0006103515625,0.16141927137753567
0.0364999999999999,0.0473936349153518,0.00030517578125,0.16077235276036586
0.037,0.0473808944225311,0.00030517578125,0.15978195620110716
0.0374999999999999,0.0473688729107379,0.0006103515625,0.1592436532846256
0.038,0.0473563820123672,0.0006103515625,0.15834984361213925
0.0384999999999999,0.0473436117172241,0.00030517578125,0.1573380622366683
0.039,0.0473314858973026,0.0006103515625,0.15674891435302074
0.0394999999999999,0.0473185218870639,0.00030517578125,0.15562764620346825
0.04,0.0473065450787544,0.00030517578125,0.1551526112823614
0.0404999999999999,0.0472940802574157,0.00030517578125,0.15429828989534128
0.041,0.0472815744578838,0.0,0.15344318028054374
0.0414999999999999,0.0472695156931877,0.0006103515625,0.15285048309049432
0.042,0.0472566485404968,0.00030517578125,0.151754313651729
0.0424999999999999,0.0472444370388984,0.00030517578125,0.15111503339048116
0.043,0.0472318641841411,0.0006103515625,0.15022871460901208
0.0434999999999999,0.0472193993628025,0.0006103515625,0.1494330275264272
0.044,0.0472071096301078,0.0,0.14873286871541613
0.0444999999999999,0.0471946410834789,0.0,0.1479073510885208
0.045,0.0471824817359447,0.00030517578125,0.14726128368108587
0.0454999999999999,0.0471694767475128,0.00030517578125,0.14612354906751152
0.046,0.0471573732793331,0.00030517578125,0.1455850523524212
0.0464999999999999,0.0471451058983802,0.00030517578125,0.1448784634909265
0.047,0.0471324957907199,0.0006103515625,0.1439691082434059
0.0474999999999999,0.0471200086176395,0.0,0.14317026285973763
0.048,0.0471076071262359,0.0006103515625,0.14242520958305457
0.0484999999999999,0.047095026820898,0.0006103515625,0.1415772751532066
0.049,0.0470827557146549,0.00091552734375,0.1409173350821065
0.0494999999999999,0.0470703095197677,0.00030517578125,0.14013025660243802
0.05,0.047058030962944,0.00030517578125,0.1394388257841368
0.0504999999999999,0.0470455661416053,0.0006103515625,0.13862875058990953
0.051,0.0470332205295562,0.0,0.1378980881024076
0.0514999999999999,0.0470207296311855,0.00030517578125,0.1370846027537257
0.052,0.047008316963911,0.0,0.13633094287832556
0.0524999999999999,0.0469959266483783,0.00030517578125,0.13558910907966734
0.053,0.04698346555233,0.00091552734375,0.1348079720427148
0.0534999999999999,0.046971071511507,0.0006103515625,0.13407263200942723
0.054,0.046958465129137,0.00030517578125,0.13322442659014702
0.0544999999999999,0.0469458177685737,0.0006103515625,0.13238605681303656
0.055,0.0469335094094276,0.00030517578125,0.13174940397169332
0.0554999999999999,0.0469208434224128,0.00030517578125,0.13089436149842637
0.056,0.0469087734818458,0.00091552734375,0.1303780366260555
0.0564999999999999,0.0468966737389564,0.00030517578125,0.12977917758142618
0.057,0.0468841679394245,0.00091552734375,0.1289336627356666
0.0574999999999999,0.0468713082373142,0.0006103515625,0.1279463427265889
0.058,0.0468588843941688,0.00030517578125,0.127257420344436
0.0584999999999999,0.0468466058373451,0.00030517578125,0.12662649931225103
0.059,0.0468341298401355,0.00030517578125,0.1258662306103794
0.0595,0.0468216389417648,0.00091552734375,0.12510827977380024
0.06,0.0468093566596508,0.00030517578125,0.12446495910567658
0.0605,0.0467966422438621,0.00091552734375,0.12358303253109347
0.061,0.0467842407524585,0.00030517578125,0.12290515406690591
0.0615,0.0467719212174415,0.00091552734375,0.12225621769174266
0.062,0.0467591658234596,0.0006103515625,0.12137034612372435
0.0625,0.0467472113668918,0.00091552734375,0.12093046765463429
0.0629999999999999,0.0467345155775547,0.0006103515625,0.1200437596767595
0.0635,0.0467221103608608,0.0006103515625,0.11935310888821327
0.0639999999999999,0.0467094853520393,0.0006103515625,0.11854863571824478
0.0645,0.0466969944536685,0.0006103515625,0.11783524414866113
0.0649999999999999,0.0466848611831665,0.00030517578125,0.11729905462317752
0.0655,0.0466722100973129,0.0,0.11646342409725216
0.0659999999999999,0.0466598272323608,0.0006103515625,0.11579732656845815
0.0665,0.0466476380825042,0.0006103515625,0.11521668934355302
0.0669999999999999,0.0466349832713604,0.00030517578125,0.11437727309279469
0.0675,0.0466226264834404,0.0006103515625,0.11372462345454745
0.0679999999999999,0.0466097965836524,0.0006103515625,0.11283159610436014
0.0685,0.0465972088277339,0.0006103515625,0.11210658635546299
0.0689999999999999,0.0465853027999401,0.0006103515625,0.11171842906413
0.0695,0.0465723723173141,0.00030517578125,0.1107560814632802
0.0699999999999999,0.0465604439377784,0.0006103515625,0.11035034488821342
0.0705,0.0465477779507637,0.00030517578125,0.10951773195856788
0.0709999999999999,0.0465353801846504,0.00030517578125,0.10885472147791196
0.0715,0.0465229339897632,0.00030517578125,0.10816513557366099
0.0719999999999999,0.0465102456510067,0.00091552734375,0.10736380359341974
0.0725,0.0464982651174068,-0.00030517578125,0.10692912694184996
0.0729999999999999,0.0464858300983905,0.0006103515625,0.10621641946983296
0.0735,0.0464733876287937,0.00030517578125,0.10551365651943542
0.0739999999999999,0.0464608296751976,0.00030517578125,0.10476597401085655
0.0745,0.046448491513729,0.001220703125,0.10414084156191579
0.0749999999999999,0.0464363098144531,0.00091552734375,0.1035789120997408
0.0755,0.046423565596342,0.0006103515625,0.10273047457844593
0.0759999999999999,0.0464111343026161,0.0006103515625,0.10207647209218622
0.0765,0.0463988371193409,0.00091552734375,0.10148266970382078
0.0769999999999999,0.0463863275945186,0.0006103515625,0.1007742631607326
0.0775,0.0463740564882755,0.00030517578125,0.1001895938084192
0.0779999999999999,0.0463615953922271,0.00030517578125,0.09950023346964092
0.0785,0.046349324285984,0.00030517578125,0.09890782049036646
0.0789999999999999,0.046337004750967,0.0006103515625,0.0982796201846989
0.0795,0.0463241711258888,0.00030517578125,0.09741093047611535
0.0799999999999999,0.0463123805820941,0.00091552734375,0.09707423224076824
0.0805,0.0462994538247585,0.00091552734375,0.09614802318472958
0.0809999999999999,0.0462869368493557,0.00030517578125,0.09547837469145358
0.0815,0.0462748147547245,0.00030517578125,0.09499329821418853
0.0819999999999999,0.0462622046470642,0.0,0.09425077695980594
0.0825,0.0462498851120471,0.0006103515625,0.0936661092427059
0.0829999999999999,0.0462371371686458,0.00030517578125,0.09287735797960708
0.0835,0.04622508212924,0.0006103515625,0.09243472086226827
0.0839999999999999,0.0462126284837722,0.0006103515625,0.09176943993272103
0.0845,0.0461996830999851,0.0,0.09089451656865685
0.0849999999999999,0.0461876541376113,0.0006103515625,0.09048490209728575
0.0855,0.0461746379733085,0.00030517578125,0.08958792618834156
0.0859999999999999,0.0461625196039676,0.00030517578125,0.08915095433958305
0.0865,0.0461502932012081,0.00030517578125,0.08862314687287318
0.0869999999999999,0.0461378097534179,0.00030517578125,0.08796180784815541
0.0875,0.0461257137358188,0.0,0.08748146514755299
0.0879999999999999,0.0461130738258361,0.0006103515625,0.0867336866616464
0.0885,0.0461005792021751,0.0006103515625,0.08608077103757057
0.0889999999999999,0.0460881255567073,0.00091552734375,0.08545558022414257
0.0895,0.0460756197571754,0.0006103515625,0.08481214016266078
0.0899999999999999,0.0460630506277084,0.00030517578125,0.08414973530825864
0.0905,0.046050738543272,0.0006103515625,0.08360903930504872
0.0909999999999999,0.0460385382175445,0.0006103515625,0.08310242407358352
0.0915,0.0460261330008506,0.00030517578125,0.08249036025888087
0.0919999999999999,0.0460132099688053,0.00030517578125,0.0816613259578017
0.0925,0.0460011400282382,0.00030517578125,0.0812442623868643
0.0929999999999999,0.0459884628653526,0.00030517578125,0.0805311623931336
0.0935,0.0459760427474975,0.00030517578125,0.07995228622771955
0.0939999999999999,0.0459636934101581,0.001220703125,0.07940047243994681
0.0945,0.0459509901702404,0.0006103515625,0.07869242320940875
0.0949999999999999,0.0459387451410293,0.0006103515625,0.07820175963082167
0.0955,0.0459261201322078,0.00030517578125,0.07753217569763758
0.0959999999999999,0.0459139645099639,0.0006103515625,0.07707592241038322
0.0965,0.0459016226232051,0.0006103515625,0.07651784989607772
0.0969999999999999,0.0458888597786426,0.00030517578125,0.07578217595348072
0.0975,0.0458767414093017,0.0006103515625,0.07534493107843401
0.0979999999999999,0.0458639077842235,0.0006103515625,0.07458598743340805
0.0985,0.0458514243364334,0.00030517578125,0.0740084635891108
0.0989999999999999,0.0458388440310955,0.00030517578125,0.07339254045789509
0.0995,0.0458262972533702,0.00030517578125,0.07279824150838318
0.0999999999999999,0.0458141602575778,0.0006103515625,0.07237461300993987
0.1005,0.0458011589944362,0.00091552734375,0.07157352214572209
0.1009999999999999,0.0457893647253513,0.0,0.07130486488328747
0.1015,0.0457765944302082,0.0006103515625,0.07058824699141293
0.1019999999999999,0.0457640886306762,0.00030517578125,0.07000894248479436
0.1025,0.0457517281174659,0.00030517578125,0.06949080870877117
0.1029999999999999,0.0457393527030944,0.00091552734375,0.06895938820803396
0.1035,0.0457272455096244,0.00030517578125,0.06853091302709657
0.1039999999999999,0.0457143448293209,0.00030517578125,0.06776665677696364
0.1045,0.0457022003829479,0.0006103515625,0.06734007305205952
0.1049999999999999,0.0456897355616092,0.00030517578125,0.06676511684040873
0.1055,0.045677077025175,0.00030517578125,0.06612139379939723
0.1059999999999999,0.0456646494567394,-0.00030517578125,0.06558671159107363
0.1065,0.0456524230539798,0.0006103515625,0.06512782338384403
0.1069999999999999,0.0456400886178016,0.0006103515625,0.06461233777926982
0.1075,0.0456275977194309,0.00030517578125,0.06403416603383377
0.1079999999999999,0.04561498016119,0.0006103515625,0.06341617445495162
0.1085,0.0456028766930103,0.0,0.06300952746304783
0.1089999999999999,0.0455903187394142,-0.00030517578125,0.062407621733946275
0.1095,0.0455776788294315,0.0,0.061788301608211214
0.1099999999999999,0.0455655418336391,0.0006103515625,0.061375496141577994
0.1105,0.0455530546605587,0.0,0.06081164308201848
0.1109999999999999,0.0455405823886394,0.0006103515625,0.06026124998319816
0.1115,0.0455280467867851,0.0006103515625,0.05969261312699669
0.1119999999999999,0.0455157496035099,0.0006103515625,0.05922151318961958
0.1125,0.0455031916499137,0.0006103515625,0.058646572428585265
0.1129999999999999,0.0454906970262527,0.00030517578125,0.05810589765574924
0.1135,0.0454783849418163,0.00030517578125,0.05763672197186295
0.1139999999999999,0.0454659648239612,0.0,0.05712091801266822
0.1145,0.0454535670578479,0.0006103515625,0.056614185589239044
0.1149999999999999,0.045441448688507,0.00030517578125,0.056208926894865605
0.1155,0.0454283878207206,0.00091552734375,0.05544822441450927
0.1159999999999999,0.0454159937798976,0.00030517578125,0.05497182192021681
0.1165,0.0454037338495254,0.00030517578125,0.054538519750515504
0.1169999999999999,0.0453912243247032,0.00030517578125,0.054005225057695144
0.1175,0.0453788451850414,0.0006103515625,0.053524558961530334
0.118,0.0453663729131221,0.0006103515625,0.05300879953605093
0.1185,0.0453538000583648,0.0,0.05246189171451528
0.119,0.0453413538634777,0.00030517578125,0.051968824757824945
0.1195,0.0453291870653629,0.0,0.05157326011933333
0.12,0.0453168861567974,0.00091552734375,0.051116269776466355
0.1205,0.0453041680157184,0.0006103515625,0.05051139594780927
0.121,0.0452918745577335,0.0,0.05007301919577794
0.1215,0.045278999954462,0.00030517578125,0.04942911408446326
0.122,0.0452667661011219,0.0006103515625,0.049030447548992585
0.1225,0.0452545210719108,0.0006103515625,0.04861582623181238
0.123,0.0452417582273483,0.0006103515625,0.04801691944780492
0.1235,0.0452295169234275,0.0006103515625,0.04761364483460416
0.124,0.0452167876064777,0.0,0.04703651713146788
0.1245,0.0452044866979122,0.00030517578125,0.04661880821652788
0.125,0.0451920926570892,0.0,0.04616257419033537
0.1254999999999999,0.0451796054840087,0.00091552734375,0.04567369860770583
0.126,0.0451677776873111,0.0006103515625,0.04540588916956408
0.1264999999999999,0.0451549440622329,0.00091552734375,0.0447810280230998
0.127,0.045142326503992,0.00030517578125,0.04425280646364557
0.1274999999999999,0.0451298952102661,0.0006103515625,0.04379564385557535
0.128,0.0451174266636371,0.0006103515625,0.04332705360230595
0.1284999999999999,0.0451052598655223,0.0006103515625,0.04295863760658219
0.129,0.0450921468436718,0.0,0.04227640899009537
0.1294999999999999,0.0450801774859428,0.0006103515625,0.0419909661931048
0.13,0.0450678393244743,0.00030517578125,0.041565160953173384
0.1304999999999999,0.0450547412037849,0.0006103515625,0.04089867905894549
0.131,0.0450425967574119,0.0006103515625,0.040563373172270906
0.1314999999999999,0.0450300499796867,0.0006103515625,0.04008790225207739
0.132,0.0450174733996391,0.0006103515625,0.039608812208791366
0.1324999999999999,0.0450051613152027,0.0006103515625,0.0392171867283519
0.133,0.0449926182627677,0.0006103515625,0.03874884122940499
0.1334999999999999,0.044980451464653,0.00030517578125,0.038400456668117665
0.134,0.0449678264558315,0.0006103515625,0.03790182455662967
0.1344999999999999,0.044955626130104,0.0006103515625,0.03754122148864486
0.135,0.0449432469904422,0.00091552734375,0.03711810915640223
0.1354999999999999,0.0449307896196842,0.00030517578125,0.03667174687122663
0.136,0.0449186973273754,0.0,0.03633764281453369
0.1364999999999999,0.0449059754610061,0.0006103515625,0.03580683634668916
0.137,0.0448935367166996,0.00030517578125,0.035375284921378286
0.1374999999999999,0.044881235808134,0.00091552734375,0.034986520079734885
0.138,0.0448686517775058,0.00030517578125,0.03451264757529856
0.1384999999999999,0.0448566600680351,0.0006103515625,0.03421874256445874
0.139,0.0448438599705696,0.0006103515625,0.033677723996035455
0.1394999999999999,0.0448315925896167,0.0006103515625,0.03330691358902789
0.14,0.0448190905153751,0.0006103515625,0.032865392276344704
0.1404999999999999,0.0448064245283603,0.00091552734375,0.032382936965902845
0.141,0.0447943434119224,0.0,0.03207540442566984
0.1414999999999999,0.0447816103696823,0.00030517578125,0.031575025062489166
0.142,0.0447692759335041,0.00030517578125,0.03119886496715241
0.1424999999999999,0.0447571687400341,0.0006103515625,0.030883252300064865
0.143,0.0447445623576641,0.00091552734375,0.030421594074684213
0.1434999999999999,0.0447322763502597,0.0006103515625,0.03005665834273632
0.144,0.0447197295725345,0.0006103515625,0.02961873360706612
0.1444999999999999,0.044707428663969,0.00030517578125,0.029253949103958184
0.145,0.0446947515010833,0.0006103515625,0.028786817980561173
0.1454999999999999,0.0446823388338089,0.0,0.028400410044943706
0.146,0.0446701385080814,0.00030517578125,0.028071085972294647
0.1464999999999999,0.0446574911475181,0.00030517578125,0.02761945425229719
0.147,0.044645182788372,0.00030517578125,0.027265651450895434
0.1474999999999999,0.0446324869990348,0.0,0.026810036665500775
0.148,0.0446200370788574,0.0006103515625,0.026428007642345208
0.1484999999999999,0.0446078553795814,0.00091552734375,0.026115852270908454
0.149,0.0445954874157905,0.00091552734375,0.025750428449212975
0.1494999999999999,0.0445832125842571,0.0,0.025409209534622324
0.15,0.0445705391466617,0.0006103515625,0.024966467133074335
