time [s],Lmtc [m],STIM [ ],Fsee [N]
0.0,0.0460065640509128,0.0006103515625,0.14339031228694796
0.0004999999999999,0.0460064597427845,0.00091552734375,0.14332570782207657
0.001,0.0460064560174942,0.0006103515625,0.1433254567460723
0.0014999999999999,0.0460067614912986,0.00030517578125,0.14351698085543568
0.002,0.0460065640509128,0.00030517578125,0.14339171759506184
0.0024999999999999,0.0460063777863979,0.0,0.14327604400571672
0.003,0.0460067614912986,0.00030517578125,0.14351749097372016
0.0034999999999999,0.046006616204977,0.00030517578125,0.14342471843806476
0.004,0.0460066124796867,0.0006103515625,0.14342177671209413
0.0044999999999999,0.046006366610527,0.0,0.14326843241164153
0.005,0.0460066013038158,0.00030517578125,0.14341756553046253
0.0054999999999999,0.0460068359971046,0.00091552734375,0.14356344970790022
0.006,0.0460065975785255,0.00091552734375,0.14341185714786278
0.0064999999999999,0.0460066124796867,0.0006103515625,0.1434210251081621
0.007,0.0460058972239494,0.00030517578125,0.14297817808144223
0.0074999999999999,0.0460045225918293,0.0,0.14214578034143807
0.008,0.046002060174942,0.0006103515625,0.14067688544231072
0.0084999999999999,0.0459978505969047,0.00091552734375,0.1382070115973791
0.009,0.0459915176033973,0.0006103515625,0.13457388805500814
0.0094999999999999,0.0459830909967422,0.0,0.12989771043196743
0.01,0.0459727197885513,0.00030517578125,0.12437687698946114
0.0104999999999999,0.0459600165486335,0.0006103515625,0.11792498607593953
0.011,0.0459457263350486,0.0006103515625,0.11111457031192369
0.0114999999999999,0.0459303222596645,0.00030517578125,0.10432636304177977
0.012,0.0459136478602886,0.00030517578125,0.09757833513552136
0.0124999999999999,0.0458959713578224,0.00030517578125,0.09112105659342504
0.013,0.0458780974149704,0.0006103515625,0.08541289158089865
0.0134999999999999,0.0458594858646392,0.001220703125,0.08021304813981472
0.014,0.0458418354392051,0.0006103515625,0.07627049152703656
0.0144999999999999,0.0458232089877128,0.0006103515625,0.07261248068082377
0.015,0.0458048768341541,0.00030517578125,0.0697540855992268
0.0154999999999999,0.0457866676151752,0.00091552734375,0.06747675655972188
0.016,0.0457685403525829,0.0006103515625,0.0656370725826503
0.0164999999999999,0.0457507334649562,0.00030517578125,0.06421461393061194
0.017,0.0457330197095871,0.00030517578125,0.06300971900102743
0.0174999999999999,0.0457152500748634,0.00091552734375,0.06190903384739517
0.018,0.0456974357366561,0.0006103515625,0.06088585586262494
0.0184999999999999,0.0456797182559967,0.0006103515625,0.059966961610392874
0.019,0.0456619597971439,0.0006103515625,0.0590741156176621
0.0194999999999999,0.0456444174051284,0.0006103515625,0.05828998552625898
0.02,0.0456270053982734,0.0,0.05755274003120039
0.0204999999999999,0.0456091724336147,0.0006103515625,0.0566627813939884
0.021,0.0455912835896015,0.00091552734375,0.055789725764795135
0.0214999999999999,0.0455736070871353,0.00030517578125,0.055018001439344176
0.022,0.0455557331442832,0.00030517578125,0.05418291370236925
0.0224999999999999,0.0455379858613014,0.00030517578125,0.05341165601251881
0.023,0.0455203466117382,0.00030517578125,0.05267919578741659
0.0234999999999999,0.045502096414566,0.0006103515625,0.05174208717886943
0.024,0.0454848855733871,0.00091552734375,0.051191552509043545
0.0244999999999999,0.0454667173326015,0.00030517578125,0.05028182734033259
0.025,0.0454494021832942,0.00030517578125,0.04969055672251392
0.0254999999999999,0.045431550592184,0.0,0.04889185116100956
0.026,0.0454135723412036,0.001220703125,0.04807282388552332
0.0264999999999999,0.045395903289318,0.0006103515625,0.047372472292214196
0.027,0.0453778579831123,0.0006103515625,0.046550265150378974
0.0274999999999999,0.0453601665794849,0.00030517578125,0.04586315727319268
0.028,0.0453425161540508,0.0006103515625,0.04518267540253862
0.0284999999999999,0.0453249737620353,0.0,0.044528544214420256
0.029,0.0453069135546684,0.0006103515625,0.04370405093013117
0.0294999999999999,0.0452895127236843,0.001220703125,0.04311189554077803
0.03,0.0452718213200569,0.0006103515625,0.0424070484438237
0.0304999999999999,0.0452539883553981,0.0,0.04166315031754397
0.031,0.0452359542250633,0.00030517578125,0.04087322964345983
0.0314999999999999,0.0452185682952404,0.00091552734375,0.04030135153776611
0.032,0.0452006869018077,0.0,0.03955928683206457
0.0324999999999999,0.0451828576624393,0.0006103515625,0.038848855853927444
0.033,0.0451653115451335,0.0006103515625,0.03822981499010193
0.0334999999999999,0.0451474860310554,0.00030517578125,0.03752031084753578
0.034,0.0451297275722026,0.00091552734375,0.036841839824739125
0.0344999999999999,0.0451118126511573,0.00091552734375,0.036124482410416284
0.035,0.0450943335890769,0.0006103515625,0.03554401924439584
0.0354999999999999,0.0450765192508697,0.00030517578125,0.03485550532799004
0.036,0.045058473944664,0.00030517578125,0.0341140087096671
0.0364999999999999,0.0450410768389701,0.00030517578125,0.033572949832754787
0.037,0.0450232438743114,0.0006103515625,0.032894052762099744
0.0374999999999999,0.0450054034590721,0.00091552734375,0.03222410469563693
0.038,0.044987715780735,0.00030517578125,0.03160445430208762
0.0384999999999999,0.0449702143669128,0.00091552734375,0.031034887107914938
0.039,0.0449527725577354,0.0,0.030472526530858333
0.0394999999999999,0.044934581965208,0.00030517578125,0.029706001470365388
0.04,0.0449171215295791,0.0006103515625,0.02916032245138954
0.0404999999999999,0.0448996946215629,0.00091552734375,0.02861253135396108
0.041,0.044881485402584,0.0006103515625,0.02785859935386901
0.0414999999999999,0.0448642782866954,0.00030517578125,0.02738841875718325
0.042,0.0448466055095195,0.0,0.026780441949843973
0.0424999999999999,0.0448290817439556,0.00030517578125,0.026214956810826737
0.043,0.0448112040758132,0.00030517578125,0.025562220957615102
0.0434999999999999,0.0447935573756694,0.00030517578125,0.024981206599982014
0.044,0.0447760224342346,0.0006103515625,0.024429893903899276
0.0444999999999999,0.0447579361498355,-0.00030517578125,0.023747226192228275
0.045,0.0447405315935611,0.0,0.02324643636472423
0.0454999999999999,0.044722843915224,0.0006103515625,0.022671378312142606
0.046,0.0447048880159854,0.0006103515625,0.022041098422231776
0.0464999999999999,0.0446873642504215,0.00030517578125,0.021524172094841212
0.047,0.0446697659790515,0.0006103515625,0.020987321060721386
0.0474999999999999,0.0446519590914249,0.0006103515625,0.020405806490586865
0.048,0.0446341186761856,0.0006103515625,0.01982696856599571
0.0484999999999999,0.0446162708103656,0.00030517578125,0.019256726335829946
0.049,0.0445989295840263,0.00091552734375,0.01880257520103115
0.0494999999999999,0.0445806942880153,0.00030517578125,0.01815264813779526
0.05,0.0445634461939334,0.0006103515625,0.017729608647167713
0.0504999999999999,0.0445455387234687,0.0006103515625,0.017159804295422815
0.051,0.0445272736251354,0.0006103515625,0.01653197869769247
0.0514999999999999,0.044510468840599,0.0006103515625,0.016213148352942193
0.052,0.0444923378527164,0.0006103515625,0.015611939107444324
0.0524999999999999,0.0444746688008308,0.00030517578125,0.015118309538712467
0.053,0.0444570258259773,0.0,0.014632498654920773
0.0534999999999999,0.0444393344223499,0.00030517578125,0.014141091244247072
0.054,0.0444215536117553,0.00030517578125,0.013637410152140683
0.0544999999999999,0.0444033555686473,0.00030517578125,0.013067843114055453
0.055,0.0443861074745655,0.0006103515625,0.012682136212146925
0.0554999999999999,0.0443682223558425,0.0006103515625,0.012178916533716727
0.056,0.0443503558635711,0.0006103515625,0.011688699573169743
0.0564999999999999,0.0443327091634273,0.0,0.011243618440067927
0.057,0.0443148985505104,0.0,0.010775165038251234
0.0574999999999999,0.0442974306643009,0.00030517578125,0.010368663367400707
0.058,0.0442795753479003,-0.00030517578125,0.009900777960579334
0.0584999999999999,0.0442614667117595,0.0006103515625,0.00940395139632571
0.059,0.044244036078453,0.00091552734375,0.009022553662121714
0.0595,0.0442261099815368,0.00091552734375,0.008567688983148596
0.06,0.0442085713148117,0.0,0.00817840958337906
0.0605,0.044190876185894,0.00030517578125,0.007769236673335086
0.061,0.0441729128360748,0.00030517578125,0.007329566247314026
0.0615,0.0441554188728332,0.00091552734375,0.006963131197740464
0.062,0.0441378727555274,0.00091552734375,0.0065922819466506365
0.0625,0.0441200137138366,0.0,0.006186327835470238
0.0629999999999999,0.0441022403538227,0.0006103515625,0.005800635600581276
0.0635,0.0440844185650348,0.0006103515625,0.0054177427734069805
0.0639999999999999,0.0440669804811477,0.00030517578125,0.00508776220951167
0.0645,0.0440490841865539,0.00030517578125,0.004710889399370936
0.0649999999999999,0.0440315753221511,0.00091552734375,0.004386276361808765
0.0655,0.0440137907862663,0.0006103515625,0.00403896801286777
0.0659999999999999,0.0439960248768329,0.0006103515625,0.003703642538120475
0.0665,0.0439783744513988,0.00091552734375,0.0033891591735828405
0.0669999999999999,0.0439603067934513,0.0006103515625,0.003046326609596854
0.0675,0.0439428575336933,0.0006103515625,0.0027709332222581335
0.0679999999999999,0.043925192207098,0.0006103515625,0.00248517274397511
0.0685,0.0439072661101818,0.0006103515625,0.0021903214630139326
0.0689999999999999,0.0438896901905536,0.00091552734375,0.0019349849988160028
0.0695,0.0438716746866703,0.00030517578125,0.0016611848764518419
0.0699999999999999,0.0438539646565914,-0.00030517578125,0.0014231682566303242
0.0705,0.0438364334404468,0.00030517578125,0.0012091642288007754
0.0709999999999999,0.0438185036182403,0.0006103515625,0.000987423302591139
0.0715,0.0438008531928062,0.00030517578125,0.0007972367493731269
0.0719999999999999,0.0437829010188579,0.0,0.0006111992603316798
0.0725,0.0437654517590999,0.0006103515625,0.00046418791591449883
0.0729999999999999,0.0437477082014083,0.001220703125,0.00032525226596736667
0.0735,0.0437294729053974,0.00091552734375,0.00019678840270586343
0.0739999999999999,0.0437121987342834,0.00091552734375,0.00011493330952678343
0.0745,0.0436944067478179,0.0006103515625,4.728738826232586e-05
0.0749999999999999,0.0436768271028995,0.0006103515625,9.5882196235852e-06
0.0755,0.0436587110161781,0.00030517578125,0.0
0.0759999999999999,0.0436410643160343,0.0006103515625,0.0
0.0765,0.0436236709356308,0.0,0.0
0.0769999999999999,0.0436057113111019,0.00030517578125,0.0
0.0775,0.0435877293348312,0.00030517578125,0.0
0.0779999999999999,0.0435700081288814,0.0006103515625,0.0
0.0785,0.0435522347688674,0.0006103515625,0.0
0.0789999999999999,0.0435346364974975,0.0006103515625,0.0
0.0795,0.0435166433453559,0.0006103515625,0.0
0.0799999999999999,0.0434991382062435,0.00030517578125,0.0
0.0805,0.0434814170002937,0.00030517578125,0.0
0.0809999999999999,0.0434633083641529,0.00030517578125,0.0
0.0815,0.0434456951916217,0.0006103515625,0.0
0.0819999999999999,0.043428111821413,0.0006103515625,0.0
0.0825,0.0434102341532707,0.00030517578125,0.0
0.0829999999999999,0.0433926805853843,0.0,0.0
0.0835,0.0433749593794345,0.00091552734375,0.0
0.0839999999999999,0.0433573871850967,0.0006103515625,0.0
0.0845,0.0433394610881805,-0.00030517578125,0.0
0.0849999999999999,0.0433222614228725,0.00091552734375,0.0
0.0855,0.0433042831718921,0.00091552734375,0.0
0.0859999999999999,0.0432864055037498,0.00091552734375,0.0
0.0865,0.0432687737047672,0.00030517578125,0.0
0.0869999999999999,0.0432512052357196,0.00091552734375,0.0
0.0875,0.0432336628437042,0.0,0.0
0.0879999999999999,0.0432158187031745,0.0006103515625,0.0
0.0885,0.043197825551033,0.00091552734375,0.0
0.0889999999999999,0.0431806445121765,0.00091552734375,0.0
0.0895,0.0431624799966812,0.00091552734375,0.0
0.0899999999999999,0.0431446880102157,0.00030517578125,0.0
0.0905,0.0431271828711032,0.00091552734375,0.0
0.0909999999999999,0.043109256774187,0.00030517578125,0.0
0.0915,0.043091706931591,0.0006103515625,0.0
0.0919999999999999,0.0430738106369972,0.0006103515625,0.0
0.0925,0.0430561602115631,0.00091552734375,0.0
0.0929999999999999,0.0430385544896125,-0.00030517578125,0.0
0.0935,0.0430203638970851,0.00030517578125,0.0
0.0939999999999999,0.0430030077695846,0.00030517578125,0.0
0.0945,0.042985126376152,0.0,0.0
0.0949999999999999,0.0429675616323947,0.00030517578125,0.0
0.0955,0.042950015515089,-0.00030517578125,0.0
0.0959999999999999,0.0429320819675922,0.00030517578125,0.0
0.0965,0.042914792895317,0.00030517578125,0.0
0.0969999999999999,0.0428965762257576,0.0006103515625,0.0
0.0975,0.0428788848221302,0.00091552734375,0.0
0.0979999999999999,0.0428610891103744,0.00030517578125,0.0
0.0985,0.0428432896733284,0.00030517578125,0.0
0.0989999999999999,0.0428259298205375,0.0006103515625,0.0
0.0995,0.042807713150978,0.00030517578125,0.0
0.0999999999999999,0.0427901297807693,0.0,0.0
0.1005,0.0427727177739143,0.0006103515625,0.0
0.1009999999999999,0.0427545607089996,0.0006103515625,0.0
0.1015,0.0427369065582752,-0.00030517578125,0.0
0.1019999999999999,0.0427191294729709,0.00030517578125,0.0
0.1025,0.042701531201601,0.0006103515625,0.0
0.1029999999999999,0.0426837913691997,0.0006103515625,0.0
0.1035,0.0426658391952514,0.00030517578125,0.0
0.1039999999999999,0.0426482483744621,0.001220703125,0.0
0.1045,0.0426303781569004,0.00030517578125,0.0
0.1049999999999999,0.0426128394901752,0.0,0.0
0.1055,0.0425951220095157,0.0006103515625,0.0
0.1059999999999999,0.0425770953297615,0.00030517578125,0.0
0.1065,0.0425597392022609,0.0006103515625,0.0
0.1069999999999999,0.0425418205559253,0.00030517578125,0.0
0.1075,0.0425241962075233,0.0006103515625,0.0
0.1079999999999999,0.0425062365829944,0.00030517578125,0.0
0.1085,0.0424885116517543,0.0006103515625,0.0
0.1089999999999999,0.0424709171056747,0.0,0.0
0.1095,0.0424531772732734,0.00091552734375,0.0
0.1099999999999999,0.0424354635179042,0.0006103515625,0.0
0.1105,0.042417749762535,0.0006103515625,0.0
0.1109999999999999,0.0424000136554241,0.0006103515625,0.0
0.1115,0.0423825234174728,0.0006103515625,0.0
0.1119999999999999,0.0423645041882991,0.001220703125,0.0
0.1125,0.0423469543457031,0.0006103515625,0.0
0.1129999999999999,0.0423291847109794,0.0006103515625,0.0
0.1135,0.0423112325370311,0.0006103515625,0.0
0.1139999999999999,0.0422936677932739,0.0006103515625,0.0
0.1145,0.0422759167850017,0.0006103515625,0.0
0.1149999999999999,0.0422583296895027,0.0006103515625,0.0
0.1155,0.0422407202422618,0.0006103515625,0.0
0.1159999999999999,0.0422226898372173,0.00030517578125,0.0
0.1165,0.0422049686312675,0.00091552734375,0.0
0.1169999999999999,0.0421871691942215,0.0006103515625,0.0
0.1175,0.0421693697571754,0.00030517578125,0.0
0.118,0.0421515256166458,0.00030517578125,0.0
0.1185,0.0421341359615325,0.00030517578125,0.0
0.119,0.0421164520084857,0.0,0.0
0.1195,0.0420992597937583,0.0006103515625,0.0
0.12,0.0420820042490959,0.00030517578125,0.0
0.1205,0.0420653708279132,0.0006103515625,0.0
0.121,0.0420497059822082,0.00030517578125,0.0
0.1215,0.0420351475477218,0.00091552734375,0.0
0.122,0.0420223884284496,0.00091552734375,0.0
0.1225,0.0420115292072296,0.00030517578125,0.0
0.123,0.0420028008520603,0.0006103515625,0.0
0.1235,0.0419966764748096,0.0,0.0
0.124,0.041993673890829,0.0006103515625,0.0
0.1245,0.0419930517673492,0.00030517578125,0.0
0.125,0.0419954545795917,0.0,0.0
0.1254999999999999,0.0419999100267887,0.00030517578125,0.0
0.126,0.0420062243938446,0.0006103515625,0.0
0.1264999999999999,0.0420140624046325,0.00030517578125,0.0
0.127,0.04202251881361,0.00030517578125,0.0
0.1274999999999999,0.0420319661498069,0.00030517578125,0.0
0.128,0.0420415587723255,0.0006103515625,0.0
0.1284999999999999,0.0420508868992328,0.0006103515625,0.0
0.129,0.0420604757964611,0.00091552734375,0.0
0.1294999999999999,0.0420699529349803,0.00091552734375,0.0
0.13,0.0420795902609825,0.00091552734375,0.0
0.1304999999999999,0.0420888699591159,0.0006103515625,0.0
0.131,0.0420975089073181,0.0006103515625,0.0
0.1314999999999999,0.0421071089804172,0.0006103515625,0.0
0.132,0.0421162322163581,0.00091552734375,0.0
0.1324999999999999,0.0421253331005573,0.0006103515625,0.0
0.133,0.0421347841620445,0.0006103515625,0.0
0.1334999999999999,0.0421441085636615,0.0006103515625,0.0
0.134,0.0421538054943084,0.00030517578125,0.0
0.1344999999999999,0.0421627163887023,0.0006103515625,0.0
0.135,0.0421725623309612,0.0006103515625,0.0
0.1354999999999999,0.0421817190945148,0.00030517578125,0.0
0.136,0.0421911366283893,0.0006103515625,0.0
0.1364999999999999,0.0422006100416183,0.0006103515625,0.0
0.137,0.0422099418938159,0.0006103515625,0.0
0.1374999999999999,0.0422194376587867,0.0,0.0
0.138,0.0422286801040172,0.00030517578125,0.0
0.1384999999999999,0.0422382391989231,0.0006103515625,0.0
0.139,0.0422475785017013,0.00030517578125,0.0
0.1394999999999999,0.0422564148902893,0.0006103515625,0.0
0.14,0.0422658436000347,0.00091552734375,0.0
0.1404999999999999,0.0422753542661666,0.00091552734375,0.0
0.141,0.04228450730443,0.0006103515625,0.0
0.1414999999999999,0.0422942191362381,0.0006103515625,0.0
0.142,0.0423032194375991,0.0006103515625,0.0
0.1424999999999999,0.0423130467534065,0.001220703125,0.0
0.143,0.0423221737146377,0.0006103515625,0.0
0.1434999999999999,0.04233118891716,0.00030517578125,0.0
0.144,0.0423408485949039,0.0006103515625,0.0
0.1444999999999999,0.0423498451709747,0.00030517578125,0.0
0.145,0.042359571903944,0.00091552734375,0.0
0.1454999999999999,0.042369071394205,0.0006103515625,0.0
0.146,0.0423781387507915,0.00030517578125,0.0
0.1464999999999999,0.0423877127468586,0.00030517578125,0.0
0.147,0.042396817356348,0.00030517578125,0.0
0.1474999999999999,0.0424062088131904,0.0006103515625,0.0
0.148,0.0424154847860336,0.00030517578125,1.78275167122462e-05
0.1484999999999999,0.0424247682094574,0.00030517578125,0.00031232826884639475
0.149,0.0424343310296535,0.0006103515625,0.0009772765810861076
0.1494999999999999,0.0424430631101131,0.0,0.0019369010700060847
0.15,0.0424527339637279,0.0,0.003287292112758481
0.1504999999999999,0.0424621775746345,0.0,0.004930781778763015
0.151,0.0424713753163814,0.0006103515625,0.006826389096961748
0.1514999999999999,0.0424810200929641,0.0006103515625,0.00904237611340447
0.152,0.0424903258681297,0.00030517578125,0.011441124281950323
0.1524999999999999,0.0424998849630355,0.0006103515625,0.014095107666506061
0.153,0.042508952319622,0.0006103515625,0.016836819744586378
0.1534999999999999,0.0425182916224002,0.00030517578125,0.01979825114343686
0.154,0.0425276234745979,0.00091552734375,0.022905239436543615
0.1544999999999999,0.042536724358797,0.00030517578125,0.026082760114443167
0.155,0.0425466187298297,-0.00030517578125,0.029594856828543223
0.1554999999999999,0.0425556600093841,0.0006103515625,0.03297230979265429
0.156,0.0425647981464862,0.00030517578125,0.036467785822977064
0.1564999999999999,0.042574405670166,0.00030517578125,0.04019815697349231
0.157,0.0425836332142353,0.0,0.04388155133237016
0.1574999999999999,0.0425931252539157,0.0,0.04772764009699124
0.158,0.0426018163561821,0.00030517578125,0.05134333621528094
0.1584999999999999,0.0426116399466991,0.00030517578125,0.055442817216986476
0.159,0.0426209233701229,0.00030517578125,0.059390297576311375
0.1594999999999999,0.0426301509141922,0.0,0.0633647214325048
0.16,0.042639784514904,0.00091552734375,0.06755785247088696
0.1604999999999999,0.0426491498947143,-0.00030517578125,0.07168502846076022
0.161,0.0426584407687187,0.00030517578125,0.07584074633550039
0.1614999999999999,0.0426679365336895,0.00030517578125,0.08015655424842066
0.162,0.042677029967308,0.00091552734375,0.08432857818812435
0.1624999999999999,0.0426867194473743,0.00030517578125,0.08880950095634974
0.163,0.0426959171891212,0.00030517578125,0.09303758073655777
0.1634999999999999,0.0427053570747375,0.0006103515625,0.09733747979587784
0.164,0.0427149012684822,0.0006103515625,0.10159376837476683
0.1644999999999999,0.0427238382399082,0.00030517578125,0.10538658534074659
0.165,0.0427333042025566,0.00030517578125,0.10927896836143472
0.1654999999999999,0.0427426435053348,0.00030517578125,0.11287893957391558
0.166,0.0427522584795951,0.0006103515625,0.1163843342204643
0.1664999999999999,0.0427615344524383,-0.00030517578125,0.11943885953764459
