time [s],Lmtc [m],STIM [ ],Fsee [N]
0.0,0.0480148531496524,0.00030517578125,0.23867459941602143
0.0004999999999999,0.0480150207877159,0.00030517578125,0.2388079976899854
0.001,0.0480147898197174,0.0006103515625,0.2386195739405931
0.0014999999999999,0.0480149462819099,0.00030517578125,0.23874633072371076
0.002,0.0480150319635868,0.00091552734375,0.23881156786894492
0.0024999999999999,0.0480146035552024,0.00030517578125,0.23846654389632513
0.003,0.0480148866772651,0.0006103515625,0.23870335322936279
0.0034999999999999,0.0480149388313293,0.0,0.2387438221481354
0.004,0.0480144657194614,0.0006103515625,0.23836914245811397
0.0044999999999999,0.048015009611845,0.0,0.23881810240590085
0.005,0.0480149202048778,0.00091552734375,0.2387410693196163
0.0054999999999999,0.048014722764492,0.00091552734375,0.23858117753129146
0.006,0.0480150170624256,0.0006103515625,0.2388192255801048
0.0064999999999999,0.0480144470930099,0.0,0.23836406591611975
0.007,0.0480137132108211,0.0,0.2378153948405172
0.0074999999999999,0.0480120666325092,0.0006103515625,0.23660380913345075
0.008,0.0480088628828525,0.0,0.23428709883340215
0.0084999999999999,0.0480040162801742,-0.00030517578125,0.23093281635096494
0.009,0.0479965507984161,0.0006103515625,0.22595449895263475
0.0094999999999999,0.0479874014854431,0.0006103515625,0.22037008670850464
0.01,0.047976516187191,0.0006103515625,0.21441380946058142
0.0104999999999999,0.0479635968804359,0.0006103515625,0.2082694581445254
0.011,0.0479494072496891,0.0006103515625,0.20291298606667132
0.0114999999999999,0.0479347929358482,0.00030517578125,0.199033106790252
0.012,0.0479190833866596,0.00030517578125,0.19593555227251946
0.0124999999999999,0.0479033961892128,0.00091552734375,0.19394326252490476
0.013,0.047886986285448,0.00030517578125,0.19210084889066414
0.0134999999999999,0.0478707887232303,0.00091552734375,0.19077007359773474
0.014,0.0478546433150768,0.00030517578125,0.18955451182471927
0.0144999999999999,0.0478382483124733,0.00030517578125,0.1882433963419212
0.015,0.0478221289813518,0.0006103515625,0.18714658958263128
0.0154999999999999,0.0478058084845542,0.00030517578125,0.18590856580133788
0.016,0.0477901399135589,0.0,0.18503828066291303
0.0164999999999999,0.0477746315300464,-0.00030517578125,0.18407682310291218
0.017,0.0477585382759571,0.00030517578125,0.18274205265734317
0.0174999999999999,0.0477429553866386,0.0,0.1817747445715466
0.018,0.0477274172008037,0.00030517578125,0.18073973224424397
0.0184999999999999,0.0477116517722606,0.00030517578125,0.17955860061319243
0.019,0.047696016728878,0.0006103515625,0.1784811873029271
0.0194999999999999,0.0476804450154304,0.0006103515625,0.1774184557012349
0.02,0.0476648062467575,0.0006103515625,0.17631071794462458
0.0204999999999999,0.0476493425667285,0.0,0.1752918765597972
0.021,0.0476334989070892,0.00030517578125,0.1740525601781607
0.0214999999999999,0.0476179867982864,0.0,0.1730525221403138
0.022,0.0476022288203239,0.00091552734375,0.17188787572476621
0.0224999999999999,0.047586865723133,0.0006103515625,0.17095829588333875
0.023,0.0475711300969123,0.00030517578125,0.16977399946607816
0.0234999999999999,0.0475554130971431,0.00030517578125,0.16865421133017472
0.024,0.047539796680212,0.00030517578125,0.16760545845516597
0.0244999999999999,0.047524344176054,0.00091552734375,0.16662905956621468
0.025,0.0475086607038974,0.0006103515625,0.16549787589883563
0.0254999999999999,0.0474930442869663,0.0,0.1644342743087351
0.026,0.0474771186709404,0.00030517578125,0.1632214752191873
0.0264999999999999,0.0474615506827831,0.00030517578125,0.16225205353650912
0.027,0.0474460199475288,0.0006103515625,0.16126012645754143
0.0274999999999999,0.0474305190145969,0.00030517578125,0.16025807290502253
0.028,0.0474147200584411,0.0006103515625,0.15908993267467536
0.0284999999999999,0.0473994649946689,0.0,0.1582489460530242
0.029,0.0473834425210952,0.0006103515625,0.15694002014245997
0.0294999999999999,0.0473683066666126,0.0006103515625,0.1561859236458138
0.03,0.0473526157438755,0.00030517578125,0.15503115622810396
0.0304999999999999,0.0473367236554622,0.00030517578125,0.1538441713907221
0.031,0.04732146859169,0.00030517578125,0.15303909444308628
0.0314999999999999,0.047305878251791,0.0006103515625,0.1519689986390517
0.032,0.0472900792956352,0.0006103515625,0.15082698744239187
0.0324999999999999,0.047274611890316,-0.00030517578125,0.14990354559313102
0.033,0.0472585894167423,0.0006103515625,0.14867264712748424
0.0334999999999999,0.0472434684634208,0.00091552734375,0.14796711821144604
0.034,0.0472279898822307,0.00091552734375,0.14695800671900427
0.0344999999999999,0.0472118072211742,0.0006103515625,0.14562271836855753
0.035,0.0471968203783035,0.0006103515625,0.145004148592895
0.0354999999999999,0.0471809580922126,0.00030517578125,0.14379771005380698
0.036,0.0471654497087001,0.0006103515625,0.14285207985331966
0.0364999999999999,0.0471500046551227,0.0006103515625,0.14191787685691265
0.037,0.0471340902149677,0.0006103515625,0.14073809941730514
0.0374999999999999,0.0471184849739074,0.00030517578125,0.13978754612421967
0.038,0.0471030436456203,0.00030517578125,0.1389013613717789
0.0384999999999999,0.0470870845019817,0.0006103515625,0.13772868988184467
0.039,0.0470717251300811,0.00030517578125,0.1369185768322032
0.0394999999999999,0.0470562167465686,0.00030517578125,0.135971359722489
0.04,0.0470403768122196,0.00030517578125,0.13486049475116801
0.0404999999999999,0.0470250025391578,0.00030517578125,0.13402621530053568
0.041,0.0470090135931968,0.0006103515625,0.13285272131733117
0.0414999999999999,0.046993400901556,0.00030517578125,0.13193849043410044
0.042,0.0469780005514621,0.00030517578125,0.13110206387643492
0.0424999999999999,0.0469623357057571,0.0,0.1300971852883583
0.043,0.046946994960308,0.00030517578125,0.12926488343046244
0.0434999999999999,0.0469309799373149,0.00030517578125,0.128075543564734
0.044,0.0469154827296733,0.00030517578125,0.12721999770129974
0.0444999999999999,0.0469002202153205,0.00030517578125,0.12643784932145388
0.045,0.0468844957649707,0.0,0.12538576553794714
0.0454999999999999,0.0468689203262329,0.00030517578125,0.12444845246354624
0.046,0.0468535758554935,0.00030517578125,0.12362319244058798
0.0464999999999999,0.0468377247452735,0.00030517578125,0.12252516602571376
0.047,0.0468223914504051,0.00030517578125,0.12173102120838863
0.0474999999999999,0.0468064658343791,0.00030517578125,0.12061769159182312
0.048,0.0467910580337047,0.001220703125,0.11981372289499528
0.0484999999999999,0.0467751808464527,0.0006103515625,0.11875504212832648
0.049,0.0467596352100372,0.0006103515625,0.11789768805996514
0.0494999999999999,0.0467443205416202,0.0006103515625,0.11712384990613205
0.05,0.0467283949255943,0.00030517578125,0.11602803230936484
0.0504999999999999,0.0467128492891788,0.00030517578125,0.11517362013739277
0.051,0.0466972924768924,0.0006103515625,0.11429607084440975
0.0514999999999999,0.0466816425323486,0.0,0.11337112046963037
0.052,0.0466660521924495,0.00030517578125,0.11248164527304477
0.0524999999999999,0.04665033146739,0.0006103515625,0.11153702248019678
0.053,0.0466348119080066,0.00091552734375,0.11070014086917643
0.0534999999999999,0.0466191098093986,0.00030517578125,0.10976261052266048
0.054,0.0466032922267913,0.0,0.10879633410870143
0.0544999999999999,0.0465878657996654,0.0006103515625,0.10802785643943674
0.055,0.0465721599757671,0.0,0.10710159172505089
0.0554999999999999,0.0465565472841262,0.00030517578125,0.10623345998949874
0.056,0.046541042625904,0.0006103515625,0.10541483804914765
0.0564999999999999,0.0465252324938774,0.0,0.10444381676868851
0.057,0.0465097688138484,-0.0006103515625,0.10365740316075338
0.0574999999999999,0.0464946553111076,0.00030517578125,0.10300448994743117
0.058,0.0464788116514682,0.0006103515625,0.10196687886982667
0.0584999999999999,0.0464631170034408,0.0,0.10105490727796657
0.059,0.0464478433132171,0.00030517578125,0.10035378994184459
0.0595,0.0464317463338375,0.00030517578125,0.09924091222745803
0.06,0.0464162677526474,0.0,0.09848595770552929
0.0605,0.0464006438851356,0.001220703125,0.0976391173589399
0.061,0.0463849566876888,0.00030517578125,0.09676491266154993
0.0615,0.0463696531951427,0.00030517578125,0.09607181015887273
0.062,0.0463538542389869,0.00030517578125,0.09511983224477107
0.0625,0.0463384464383125,0.0006103515625,0.09437682377478641
0.0629999999999999,0.0463229902088642,0.0,0.09358911660819468
0.0635,0.0463073551654815,0.00030517578125,0.09271421100849826
0.0639999999999999,0.0462920181453228,0.00030517578125,0.09198731834875763
0.0645,0.0462762266397476,0.00030517578125,0.09104121602512819
0.0649999999999999,0.0462603159248828,0.0,0.0900827642277639
0.0655,0.0462451688945293,0.0006103515625,0.08949463883084399
0.0659999999999999,0.046229563653469,0.0,0.08865003397895624
0.0665,0.0462137423455715,0.00030517578125,0.08772766195841401
0.0669999999999999,0.0461981147527694,0.0006103515625,0.08692421386857666
0.0675,0.0461823567748069,0.0006103515625,0.08606647380769819
0.0679999999999999,0.0461671538650989,0.0006103515625,0.08545893379823906
0.0685,0.0461514554917812,0.0,0.08459269416667006
0.0689999999999999,0.0461356937885284,0.00030517578125,0.0837217476302567
0.0695,0.0461204685270786,0.00030517578125,0.08309909230605933
0.0699999999999999,0.0461046807467937,0.0006103515625,0.08220272458390285
0.0705,0.0460888855159282,0.00091552734375,0.08133736823658802
0.0709999999999999,0.0460734516382217,0.00030517578125,0.0806448715868478
0.0715,0.0460578016936779,0.00030517578125,0.07984251364749223
0.0719999999999999,0.046042114496231,0.0006103515625,0.07903217399089965
0.0725,0.0460269749164581,0.0006103515625,0.0784574982212847
0.0729999999999999,0.0460110232234001,0.00091552734375,0.07750622722165816
0.0735,0.0459954887628555,-0.00030517578125,0.07677658532515406
0.0739999999999999,0.0459797084331512,0.0006103515625,0.07594273049807575
0.0745,0.0459640026092529,0.0006103515625,0.07516018542664189
0.0749999999999999,0.0459485128521919,0.00030517578125,0.07447049968944623
0.0755,0.0459330454468727,0.0006103515625,0.07377527059052957
0.0759999999999999,0.0459171719849109,0.00030517578125,0.07290741383221212
0.0765,0.0459018163383007,0.00091552734375,0.07227755838124966
0.0769999999999999,0.0458857789635658,0.00030517578125,0.07135220567759
0.0775,0.0458707399666309,0.0006103515625,0.07086511647213531
0.0779999999999999,0.0458549112081527,0.00030517578125,0.07001242090835581
0.0785,0.0458391718566417,0.00030517578125,0.06922676360207804
0.0789999999999999,0.0458237677812576,0.00091552734375,0.06858632755072451
0.0795,0.0458079017698764,0.0,0.06774961101339998
0.0799999999999999,0.0457922928035259,0.00091552734375,0.06704034718883613
0.0805,0.0457767061889171,0.001220703125,0.06633784744693172
0.0809999999999999,0.0457612797617912,0.0006103515625,0.06569336415944786
0.0815,0.0457457154989242,0.0,0.06498229271558864
0.0819999999999999,0.0457300432026386,0.0,0.06423377800187664
0.0825,0.0457143858075141,0.00030517578125,0.06350336659345031
0.0829999999999999,0.0456986539065837,0.00030517578125,0.06275353540439466
0.0835,0.0456831008195877,0.0006103515625,0.06208254326180418
0.0839999999999999,0.0456676706671714,0.0,0.061451682730725654
0.0845,0.0456520915031433,0.0006103515625,0.06075327516885174
0.0849999999999999,0.0456365495920181,0.0006103515625,0.06007237123018812
0.0855,0.0456209555268287,0.0,0.059373653852241984
0.0859999999999999,0.0456052049994468,0.00030517578125,0.058624720599843916
0.0865,0.0455895327031612,0.0006103515625,0.057921249619197056
0.0869999999999999,0.0455739945173263,0.0,0.05727159402712461
0.0875,0.045558676123619,0.00030517578125,0.0566958680637961
0.0879999999999999,0.0455429889261722,0.0,0.05597032183881972
0.0885,0.0455276295542717,0.001220703125,0.05537541751179236
0.0889999999999999,0.0455117709934711,0.00030517578125,0.05459353951897436
0.0895,0.045496217906475,0.0,0.05394702323098165
0.0899999999999999,0.0454803295433521,0.00091552734375,0.053184284960316755
0.0905,0.0454647690057754,0.00091552734375,0.052558775364321075
0.0909999999999999,0.0454493053257465,0.0,0.05196278162762197
0.0915,0.0454334169626235,0.00030517578125,0.05121238929377379
0.0919999999999999,0.0454181097447872,0.00030517578125,0.050682088635877455
0.0925,0.045402280986309,0.00030517578125,0.04995462950138638
0.0929999999999999,0.0453866273164749,0.00030517578125,0.04930512840300458
0.0935,0.0453712008893489,0.00091552734375,0.0487354958622113
0.0939999999999999,0.0453555062413215,0.00091552734375,0.04806548992711639
0.0945,0.0453400984406471,0.0006103515625,0.047500314198636734
0.0949999999999999,0.0453241281211376,0.00030517578125,0.046742009531036084
0.0955,0.045308418571949,0.00091552734375,0.04609724974546857
0.0959999999999999,0.0452930815517902,0.00030517578125,0.0455798678671952
0.0965,0.045277003198862,0.0006103515625,0.04480639045961451
0.0969999999999999,0.0452616550028324,0.0006103515625,0.044296166985958015
0.0975,0.0452466048300266,0.00091552734375,0.04386248746702618
0.0979999999999999,0.0452305749058723,0.00030517578125,0.04308900195510527
0.0985,0.0452151782810688,0.00030517578125,0.0425492087208308
0.0989999999999999,0.0451994352042675,0.0006103515625,0.04189328161444252
0.0995,0.0451835244894027,0.0006103515625,0.04119862354218281
0.0999999999999999,0.0451682806015014,0.0,0.04072910800388281
0.1005,0.0451524555683136,0.0006103515625,0.04006161059428257
0.1009999999999999,0.0451366566121578,0.00091552734375,0.039418127079437704
0.1015,0.0451213791966438,0.0006103515625,0.03894405974888543
0.1019999999999999,0.0451057218015193,0.0,0.03833939589799438
0.1025,0.0450898893177509,0.0006103515625,0.03769000776794194
0.1029999999999999,0.0450741685926914,0.00030517578125,0.03708896849269793
0.1035,0.0450585447251796,0.00030517578125,0.03652332211876282
0.1039999999999999,0.0450429208576679,0.00030517578125,0.03595923553279911
0.1045,0.0450271517038345,0.0,0.035354673364563466
0.1049999999999999,0.0450117550790309,0.00091552734375,0.03486494213125439
0.1055,0.0449963919818401,0.0006103515625,0.034375091913758114
0.1059999999999999,0.0449801571667194,0.00030517578125,0.03362945194008278
0.1065,0.0449652783572673,0.0006103515625,0.033298441088341034
0.1069999999999999,0.0449498072266578,0.0006103515625,0.03276884685997051
0.1075,0.0449338965117931,0.0006103515625,0.03211760973215044
0.1079999999999999,0.044918518513441,0.00030517578125,0.03163282118228159
0.1085,0.0449028797447681,0.0006103515625,0.031070594396783637
0.1089999999999999,0.0448872372508049,0.00030517578125,0.030513930568369752
0.1095,0.0448718070983886,0.00030517578125,0.030020695916547047
0.1099999999999999,0.0448559410870075,0.0006103515625,0.029407589219751513
0.1105,0.0448409989476203,0.00030517578125,0.029054384919614557
0.1109999999999999,0.0448248982429504,0.0006103515625,0.028374939623617923
0.1115,0.0448093749582767,0.00030517578125,0.02787296383310812
0.1119999999999999,0.0447940081357955,0.00030517578125,0.027412184033525785
0.1125,0.0447778925299644,0.0006103515625,0.026755468940614015
0.1129999999999999,0.0447626411914825,0.0006103515625,0.026340823443295386
0.1135,0.0447472669184207,0.0,0.02588401977416451
0.1139999999999999,0.0447313748300075,0.00091552734375,0.025294797672086387
0.1145,0.0447159595787525,0.00030517578125,0.024838746366365825
0.1149999999999999,0.0447004251182079,0.0,0.024350684118379935
0.1155,0.0446846857666969,0.00030517578125,0.023815233242479698
0.1159999999999999,0.0446693338453769,0.00030517578125,0.023381988088570213
0.1165,0.0446533560752868,0.0006103515625,0.02279616734320544
0.1169999999999999,0.0446378774940967,0.0006103515625,0.022344311057483808
0.1175,0.0446223318576812,0.00030517578125,0.021875972708960613
0.118,0.0446062982082366,0.0006103515625,0.021297723168522038
0.1185,0.0445909798145294,0.00091552734375,0.020898827608824434
0.119,0.0445755235850811,0.00091552734375,0.02046200513847481
0.1195,0.0445599146187305,0.00030517578125,0.019990010952973838
0.12,0.0445444881916046,0.00030517578125,0.019562506131286034
0.1205,0.0445286966860294,0.0006103515625,0.01905454318153
0.121,0.0445132069289684,0.00030517578125,0.018621389839451826
0.1215,0.0444976054131984,0.0006103515625,0.018165032863318213
0.122,0.0444821268320083,0.00091552734375,0.01773879295257741
0.1225,0.044466309249401,0.0006103515625,0.017243133254959384
0.123,0.0444507487118244,0.0006103515625,0.016810307589697742
0.1235,0.0444351360201835,0.00091552734375,0.01636942824683502
0.124,0.0444197207689285,0.00091552734375,0.01597216934499798
0.1245,0.0444038622081279,0.0,0.015486698796170132
0.125,0.0443883761763572,0.0006103515625,0.015084209745780954
0.1254999999999999,0.0443727858364582,0.00030517578125,0.014662504624296465
0.126,0.0443571023643016,0.00030517578125,0.014226835096049202
0.1264999999999999,0.0443416126072406,0.0,0.013833149470155145
0.127,0.0443260371685028,0.00030517578125,0.013425256026426368
0.1274999999999999,0.0443101152777671,0.0006103515625,0.012958172787099884
0.128,0.0442948341369628,0.00091552734375,0.012616367973993431
0.1284999999999999,0.0442790910601615,0.00030517578125,0.012190049390797522
0.129,0.0442634783685207,0.0,0.011793655725878682
0.1294999999999999,0.0442476421594619,0.00091552734375,0.011363545733318622
0.13,0.044232077896595,0.00030517578125,0.010987383404446743
0.1304999999999999,0.0442166104912757,0.0006103515625,0.01063003756650561
0.131,0.0442007668316364,0.00030517578125,0.01021313258060943
0.1314999999999999,0.0441853962838649,0.00091552734375,0.009879886107342917
0.132,0.0441698543727397,0.0006103515625,0.009519647066526561
0.1324999999999999,0.0441541485488414,0.0006103515625,0.009137638770455467
0.133,0.0441384613513946,0.0006103515625,0.008764798142343894
0.1334999999999999,0.0441228188574314,0.0006103515625,0.008404366515374942
0.134,0.0441073849797248,0.0,0.008079008365660771
0.1344999999999999,0.0440917164087295,0.0006103515625,0.007722256674781985
0.135,0.0440761670470237,0.00030517578125,0.00738771435060487
0.1354999999999999,0.0440607219934463,0.00030517578125,0.007071272989396376
0.136,0.0440450087189674,0.0006103515625,0.006721972176654065
0.1364999999999999,0.0440297611057758,0.0006103515625,0.006439649678791296
0.137,0.0440139546990394,0.0006103515625,0.006087409693261076
0.1374999999999999,0.043998010456562,0.0006103515625,0.005726994100242076
0.138,0.0439827553927898,0.0006103515625,0.005458757217742348
0.1384999999999999,0.0439672730863094,0.0006103515625,0.005165028435120995
0.139,0.0439515225589275,0.0006103515625,0.004845416199648471
0.1394999999999999,0.0439360551536083,0.0,0.004564771047734955
0.14,0.0439205281436443,0.0006103515625,0.004282449288291854
0.1404999999999999,0.0439044423401355,0.00030517578125,0.00394852645304955
0.141,0.0438891686499118,0.00030517578125,0.0037070212467563593
0.1414999999999999,0.0438736863434314,0.00030517578125,0.0034484694787790043
0.142,0.0438576824963092,0.00091552734375,0.0031478023166920644
0.1424999999999999,0.0438423790037632,0.00030517578125,0.002920418414995191
0.143,0.0438264682888984,0.0006103515625,0.002646117008155166
0.1434999999999999,0.0438110344111919,0.00030517578125,0.0024211513273043727
0.144,0.043795395642519,0.0006103515625,0.0021867658893742216
0.1444999999999999,0.0437797755002975,0.0006103515625,0.0019624901286954687
0.145,0.0437646396458148,0.00030517578125,0.0017804514956164257
0.1454999999999999,0.0437485426664352,0.0,0.0015408029526619395
0.146,0.0437329895794391,0.0006103515625,0.0013487769749814657
0.1464999999999999,0.0437175258994102,0.00030517578125,0.001171422232343902
0.147,0.043701883405447,0.0006103515625,0.0009941576862168848
0.1474999999999999,0.0436863452196121,0.0006103515625,0.0008335780588569343
0.148,0.0436710976064205,0.00091552734375,0.0006969478735972463
0.1484999999999999,0.0436548702418804,0.0006103515625,0.0005318656967375298
0.149,0.0436395481228828,0.00091552734375,0.0004170198142824649
0.1494999999999999,0.0436236821115016,0.0006103515625,0.0002981591241708446
0.15,0.0436080805957317,0.00091552734375,0.00020362048682355709
0.1504999999999999,0.0435928255319595,0.00091552734375,0.00013201094217993938
