time [s],Lmtc [m],STIM [ ],Fsee [N]
0.0,0.0460067763924598,0.00030517578125,0.14339837125986898
0.0004999999999999,0.0460066087543964,0.00091552734375,0.1432945733896199
0.001,0.0460066720843315,0.0006103515625,0.14333706274498062
0.0014999999999999,0.046006690710783,0.0006103515625,0.1433505103579858
0.002,0.0460066609084606,0.0006103515625,0.14333355506001944
0.0024999999999999,0.0460068061947822,0.00091552734375,0.14342554356705553
0.003,0.0460065938532352,0.0006103515625,0.14329327521462437
0.0034999999999999,0.0460066758096218,0.0,0.14334726275488188
0.004,0.0460067354142665,0.001220703125,0.14338563797105916
0.0044999999999999,0.0460070520639419,0.0006103515625,0.14358328065537265
0.005,0.0460066944360733,0.0006103515625,0.14335735702821997
0.0054999999999999,0.0460066869854927,0.0,0.14335400599673367
0.006,0.0460066385567188,0.0006103515625,0.14332542180611496
0.0064999999999999,0.0460060983896255,0.00030517578125,0.1429940506041111
0.007,0.0460059382021427,0.0006103515625,0.14290861262961368
0.0074999999999999,0.0460052676498889,0.00091552734375,0.14251202645412298
0.008,0.0460037253797054,0.0006103515625,0.14159309603255482
0.0084999999999999,0.0460018068552017,0.0,0.14047961126110162
0.009,0.0459979474544525,0.00091552734375,0.13822886030875883
0.0094999999999999,0.0459933616220951,0.0,0.13564153040026883
0.01,0.0459874048829078,0.0,0.132360654422798
0.0104999999999999,0.0459807738661766,0.00091552734375,0.12885508509421803
0.011,0.0459733791649341,0.0006103515625,0.12510228359383327
0.0114999999999999,0.0459655001759529,-0.00030517578125,0.12129779166833819
0.012,0.045957438647747,0.00030517578125,0.11763092288955602
0.0124999999999999,0.0459489524364471,0.0006103515625,0.11397547742233875
0.013,0.0459405295550823,0.00091552734375,0.11061145857947971
0.0134999999999999,0.0459322780370712,0.00091552734375,0.10758485587111308
0.014,0.045924037694931,0.0006103515625,0.10479425289073808
0.0144999999999999,0.045915737748146,0.0006103515625,0.10219359120792286
0.015,0.0459073595702648,0.00030517578125,0.09976638159596794
0.0154999999999999,0.0458990819752216,0.00030517578125,0.09759518958752708
0.016,0.0458905361592769,0.0006103515625,0.09547989535539668
0.0164999999999999,0.0458821654319763,0.00030517578125,0.09363829751713278
0.017,0.0458744503557682,0.0,0.09227801576619375
0.0174999999999999,0.0458658225834369,0.00091552734375,0.09059994922166427
0.018,0.0458575002849102,0.0006103515625,0.0892221003526617
0.0184999999999999,0.0458498708903789,0.00091552734375,0.0882926819478154
0.019,0.0458412878215312,0.00030517578125,0.08699273017138492
0.0194999999999999,0.0458333306014537,0.0,0.0860995034554423
0.02,0.0458251498639583,0.00030517578125,0.08517380780868748
0.0204999999999999,0.0458172596991062,0.0006103515625,0.08445492245385831
0.021,0.0458091422915458,0.00091552734375,0.08368206213023346
0.0214999999999999,0.0458007305860519,0.0006103515625,0.08283201895264289
0.022,0.0457929298281669,0.0006103515625,0.0823221046106041
0.0224999999999999,0.0457843653857708,0.00030517578125,0.08149384875331181
0.023,0.0457762628793716,0.0006103515625,0.08093422098296993
0.0234999999999999,0.0457684695720672,0.0006103515625,0.08053993857695878
0.024,0.0457603558897972,0.00030517578125,0.08001141521180538
0.0244999999999999,0.0457524135708808,-0.0006103515625,0.07958319756613638
0.025,0.0457442104816436,0.0006103515625,0.07905187588986948
0.0254999999999999,0.0457361340522766,0.00030517578125,0.07860041550161037
0.026,0.0457281321287155,0.0,0.0781958685482663
0.0264999999999999,0.0457197092473506,0.00030517578125,0.07761598947925938
0.027,0.0457118935883045,0.0006103515625,0.07733052823464301
0.0274999999999999,0.0457038208842277,0.00030517578125,0.07692718074622557
0.028,0.0456955730915069,0.00030517578125,0.07645612074711808
0.0284999999999999,0.0456879287958145,0.0006103515625,0.07626220946537475
0.029,0.0456794835627079,0.00030517578125,0.07570506282828596
0.0294999999999999,0.0456714518368244,0.00030517578125,0.07535233786790084
0.03,0.0456635393202304,0.0006103515625,0.07505243390623817
0.0304999999999999,0.0456555411219596,0.0006103515625,0.07471134674082476
0.031,0.0456474907696247,0.0006103515625,0.07434850336825542
0.0314999999999999,0.0456392057240009,0.00030517578125,0.0738882778538385
0.032,0.0456316992640495,0.00091552734375,0.07377430802527125
0.0324999999999999,0.0456231981515884,0.0,0.07321221152188263
0.033,0.0456151701509952,0.0006103515625,0.07287830321561858
0.0334999999999999,0.0456070937216281,0.0006103515625,0.0725239167152455
0.034,0.0455988608300685,0.0006103515625,0.07210614768891706
0.0344999999999999,0.0455910861492157,0.0006103515625,0.07189133764429562
0.035,0.0455825850367546,0.00030517578125,0.07135772176550799
0.0354999999999999,0.0455746315419673,0.0006103515625,0.07107713771877178
0.036,0.0455663986504077,0.00030517578125,0.07067375334530862
0.0364999999999999,0.0455584004521369,0.00091552734375,0.0703760023330669
0.037,0.0455506108701229,0.00030517578125,0.07016093571417577
0.0374999999999999,0.0455421656370162,0.0,0.06966016605036515
0.038,0.0455347374081611,0.0006103515625,0.0696006331882803
0.0384999999999999,0.0455265529453754,0.00091552734375,0.06919836414159497
0.039,0.0455181784927845,0.001220703125,0.06872700089892242
0.0394999999999999,0.0455100387334823,0.0,0.06836897886405642
0.04,0.0455018691718578,0.00030517578125,0.06800254035070945
0.0404999999999999,0.0454940199851989,0.0006103515625,0.06777153470654104
0.041,0.0454859808087348,0.00091552734375,0.06745210118203744
0.0414999999999999,0.0454779006540775,0.00091552734375,0.06711598862420567
0.042,0.0454696789383888,0.0006103515625,0.06672402953590462
0.0424999999999999,0.0454614348709583,0.00030517578125,0.0663308207880596
0.043,0.0454535521566867,0.0,0.06609193855483995
0.0434999999999999,0.0454456955194473,0.001220703125,0.06585477555807928
0.044,0.045437254011631,0.0006103515625,0.06537281908326653
0.0444999999999999,0.0454292744398117,0.00030517578125,0.06509491399375801
0.045,0.0454210042953491,0.00030517578125,0.06469604961659178
0.0454999999999999,0.0454132333397865,0.00030517578125,0.06450609831775825
0.046,0.0454047285020351,0.00091552734375,0.06400925589926805
0.0464999999999999,0.0453966297209262,0.00091552734375,0.06369348703354163
0.047,0.0453889146447181,0.0006103515625,0.0635298851651551
0.0474999999999999,0.0453804209828376,0.0006103515625,0.06304176820091781
0.048,0.0453724265098571,0.0006103515625,0.0627703428848749
0.0484999999999999,0.0453644767403602,0.00030517578125,0.06251175377083411
0.049,0.0453563295304775,0.00030517578125,0.062169620742054746
0.0494999999999999,0.0453482680022716,0.00030517578125,0.06186447377549488
0.05,0.0453402251005172,0.00030517578125,0.061566055896250506
0.0504999999999999,0.0453325770795345,0.00030517578125,0.061421106288186346
0.051,0.045324046164751,0.0006103515625,0.060914324794121615
0.0514999999999999,0.045315932482481,0.001220703125,0.060590798043267564
0.052,0.0453082621097564,0.00091552734375,0.06044091722307921
0.0524999999999999,0.04529969394207,0.00091552734375,0.05992739855283256
0.053,0.0452918447554111,0.0,0.05971386458337901
0.0534999999999999,0.0452836044132709,0.0006103515625,0.05933993445243078
0.054,0.0452757030725479,0.0006103515625,0.05910370057684787
0.0544999999999999,0.0452676191926002,0.00091552734375,0.05879075956509081
0.055,0.0452594012022018,0.0006103515625,0.058427851341089576
0.0554999999999999,0.0452514067292213,0.00030517578125,0.05815641791543941
0.056,0.0452434048056602,0.00030517578125,0.0578790858579784
0.0564999999999999,0.045234989374876,0.0006103515625,0.057442473862271796
0.057,0.0452273674309253,0.00091552734375,0.057320477323479155
0.0574999999999999,0.0452189221978187,0.0006103515625,0.05686983758583328
0.058,0.0452109165489673,0.00091552734375,0.0566008244064573
0.0584999999999999,0.0452027879655361,0.0006103515625,0.056282858619452765
0.059,0.0451946184039115,0.0006103515625,0.05595191372528037
0.0595,0.045186661183834,0.0,0.0557038751931805
0.06,0.0451785139739513,0.001220703125,0.055380302522478164
0.0605,0.0451707430183887,0.00030517578125,0.05520002844740843
0.061,0.0451622270047664,0.0006103515625,0.05473212581295632
0.0615,0.0451542846858501,0.0006103515625,0.05449386576659469
0.062,0.0451463609933853,0.00030517578125,0.054257074341415835
0.0625,0.0451382063329219,0.001220703125,0.053930223910563097
0.0629999999999999,0.0451301038265228,0.0006103515625,0.053626424575016124
0.0635,0.0451220571994781,0.0006103515625,0.05334501425799018
0.0639999999999999,0.0451136156916618,0.0006103515625,0.05291903572624766
0.0645,0.045105542987585,0.0006103515625,0.05264083934084193
0.0649999999999999,0.0450975224375724,0.00091552734375,0.05238069344366638
0.0655,0.045089453458786,0.0006103515625,0.05210091038795019
0.0659999999999999,0.0450810082256794,0.0,0.051684978975532876
0.0665,0.0450731292366981,0.0,0.05148532603542129
0.0669999999999999,0.0450651124119758,0.00030517578125,0.05122785456609357
0.0675,0.0450566820800304,0.0006103515625,0.05082025406913568
0.0679999999999999,0.0450486168265342,0.00091552734375,0.05055538805408193
0.0685,0.0450406782329082,0.00030517578125,0.050334083384718384
0.0689999999999999,0.0450322851538658,0.0,0.04994571369202896
0.0695,0.045024286955595,0.00030517578125,0.049707617799849974
0.0699999999999999,0.0450160503387451,0.00030517578125,0.04938140480556853
0.0705,0.0450084023177623,0.0006103515625,0.049266963370939505
0.0709999999999999,0.0450001247227191,0.00030517578125,0.04891564302819146
0.0715,0.0449920296669006,0.0006103515625,0.04863525497442348
0.0719999999999999,0.0449843034148216,0.00091552734375,0.048484304608568465
0.0725,0.0449757613241672,0.00030517578125,0.048037909467453524
0.0729999999999999,0.0449675172567367,0.00030517578125,0.04771182974690411
0.0735,0.0449600033462047,0.00091552734375,0.04764338966350996
0.0739999999999999,0.0449517704546451,0.00091552734375,0.04730711989421675
0.0745,0.0449439249932765,0.00030517578125,0.047110715626499225
0.0749999999999999,0.0449358858168125,0.00030517578125,0.04684084723538647
0.0755,0.0449275523424148,0.00030517578125,0.04647028202095831
0.0759999999999999,0.0449196584522724,0.0006103515625,0.046259779225297885
0.0765,0.0449112989008426,0.00091552734375,0.04588532957633373
0.0769999999999999,0.0449033416807651,0.0006103515625,0.045657791229909976
0.0775,0.044895265251398,0.00030517578125,0.0453861471295225
0.0779999999999999,0.0448874123394489,0.0,0.045190764444896905
0.0785,0.0448792204260826,0.0006103515625,0.04487508137088567
0.0789999999999999,0.0448710992932319,0.00030517578125,0.044588145110172714
0.0795,0.0448632687330246,0.0006103515625,0.04440093764100646
0.0799999999999999,0.044855061918497,0.00030517578125,0.0440811920654134
0.0805,0.0448469668626785,0.00030517578125,0.04380404854544789
0.0809999999999999,0.0448390506207942,0.0006103515625,0.04358801254867142
0.0815,0.0448306202888488,0.00030517578125,0.0431980685552921
0.0819999999999999,0.0448225103318691,0.0006103515625,0.04292597018984888
0.0825,0.0448141358792781,0.0006103515625,0.04256788062403038
0.0829999999999999,0.0448064021766185,0.0006103515625,0.042429078277787316
0.0835,0.0447986498475074,0.0,0.04227416361353547
0.0839999999999999,0.0447902642190456,0.00091552734375,0.04190354579814494
0.0845,0.0447822958230972,0.0,0.04167912216035883
0.0849999999999999,0.0447741262614727,0.0006103515625,0.04138689783777964
0.0855,0.0447663106024265,0.00030517578125,0.04121265308481739
0.0859999999999999,0.0447582229971885,0.00091552734375,0.04094388622147928
0.0865,0.0447499118745327,0.0,0.04060475094967386
0.0869999999999999,0.0447421893477439,0.0006103515625,0.04046228148714671
0.0875,0.0447340793907642,0.00030517578125,0.040186883053589015
0.0879999999999999,0.0447259880602359,0.0006103515625,0.03991989056476381
0.0885,0.0447180084884166,0.00091552734375,0.03969053192766776
0.0889999999999999,0.0447094738483428,0.00091552734375,0.03928391701163384
0.0895,0.0447018481791019,0.0006103515625,0.03917797683098847
0.0899999999999999,0.0446935631334781,0.0006103515625,0.03885248991388605
0.0905,0.0446855574846267,0.00030517578125,0.0386218585584788
0.0909999999999999,0.0446772873401641,0.0006103515625,0.038307441397003435
0.0915,0.0446690469980239,0.0006103515625,0.03800805047703629
0.0919999999999999,0.0446614772081375,0.00091552734375,0.037921974661647456
0.0925,0.0446527302265167,0.00091552734375,0.03745832615479987
0.0929999999999999,0.0446450337767601,0.0006103515625,0.037337911480749754
0.0935,0.0446369349956512,0.00091552734375,0.037083871604914886
0.0939999999999999,0.0446287579834461,0.0006103515625,0.03680716459735729
0.0945,0.0446209236979484,0.00030517578125,0.03663858187922746
0.0949999999999999,0.0446126610040664,0.0006103515625,0.03633368333802864
0.0955,0.0446045584976673,0.0006103515625,0.03608313303720706
0.0959999999999999,0.0445965565741062,0.00030517578125,0.03586434154022369
0.0965,0.0445881746709346,0.00030517578125,0.03552952376852488
0.0969999999999999,0.0445803739130497,0.0,0.03537786590033866
0.0975,0.0445719435811042,0.0,0.03503077615370429
0.0979999999999999,0.0445641949772834,0.0006103515625,0.034896814939068335
0.0985,0.0445560179650783,0.0006103515625,0.03462761188589925
0.0989999999999999,0.0445477552711963,0.0006103515625,0.03433617483261891
0.0995,0.0445399582386016,0.00030517578125,0.034187442096685644
0.0999999999999999,0.0445317029953002,0.00030517578125,0.03389711074608044
0.1005,0.0445238910615444,0.0006103515625,0.03374220979637183
0.1009999999999999,0.0445156097412109,0.0,0.03344397216714362
0.1015,0.0445076674222946,0.00091552734375,0.033250525242415674
0.1019999999999999,0.0444994829595088,0.0006103515625,0.03298407154178218
0.1025,0.0444913320243358,0.00091552734375,0.03273050368721739
0.1029999999999999,0.0444835424423217,0.00091552734375,0.03258380598339031
0.1035,0.0444753803312778,0.00030517578125,0.032324095063804216
0.1039999999999999,0.0444670729339122,0.0,0.03202569209235987
0.1045,0.0444592908024787,0.0,0.03188347868934526
0.1049999999999999,0.044451143592596,0.0006103515625,0.03163106752981482
0.1055,0.0444429591298103,0.0006103515625,0.03137075115971333
0.1059999999999999,0.044434830546379,0.0006103515625,0.031129517385430728
0.1065,0.0444266200065612,0.00030517578125,0.030866820563197984
0.1069999999999999,0.0444187857210636,0.0,0.030713395253704385
0.1075,0.0444107055664062,0.00030517578125,0.030486428415153956
0.1079999999999999,0.0444025956094265,0.0006103515625,0.03025205172677449
0.1085,0.0443943329155445,0.0006103515625,0.029976824060715297
0.1089999999999999,0.0443861410021781,0.0006103515625,0.029725909278467605
0.1095,0.0443783327937126,0.00030517578125,0.029583542126869432
0.1099999999999999,0.0443703755736351,0.00030517578125,0.029394964717818713
0.1105,0.0443622283637523,0.00030517578125,0.029152869223500712
0.1109999999999999,0.0443539060652256,0.00030517578125,0.02886536959760819
0.1115,0.044346060603857,0.0006103515625,0.02871325461894423
0.1119999999999999,0.0443380065262317,0.0,0.028500376747957187
0.1125,0.0443296507000923,0.0006103515625,0.028206356752383987
0.1129999999999999,0.044321808964014,0.0006103515625,0.028057129349020084
0.1135,0.0443137548863887,0.00030517578125,0.02784709389454496
0.1139999999999999,0.0443052239716053,0.00030517578125,0.027510091349558525
0.1145,0.0442974045872688,0.0006103515625,0.027371796638207706
0.1149999999999999,0.0442892014980316,0.0006103515625,0.027127062562459506
0.1155,0.0442811846733093,0.00030517578125,0.02693474780621895
0.1159999999999999,0.044272631406784,0.0006103515625,0.02660077308636334
0.1165,0.0442648828029632,0.00030517578125,0.026486487051093115
0.1169999999999999,0.0442570596933364,0.00091552734375,0.026346664445860632
0.1175,0.0442486777901649,0.0006103515625,0.026057378066412118
0.118,0.044240828603506,0.00030517578125,0.025912531821248273
0.1185,0.0442324355244636,0.0,0.025623801492638675
0.119,0.0442242100834846,0.00030517578125,0.025384668565309094
0.1195,0.0442164577543735,0.00030517578125,0.025269341069293204
0.12,0.0442083999514579,0.0006103515625,0.025070537215631124
0.1205,0.0442001074552536,0.0006103515625,0.02481264658467694
0.121,0.0441918186843395,0.0006103515625,0.024560231094352295
0.1215,0.0441839583218097,0.00091552734375,0.024419635532846557
0.122,0.0441757291555404,0.0006103515625,0.024182998199142918
0.1225,0.0441675446927547,0.0006103515625,0.02396054802341062
0.123,0.044159673154354,0.00030517578125,0.023818078618712546
0.1235,0.0441517494618892,0.001220703125,0.02365947478860585
0.124,0.044143795967102,0.00030517578125,0.023491475802094593
0.1245,0.0441357232630252,0.0,0.02329308029597922
0.125,0.0441272109746933,0.00030517578125,0.022987853392864646
0.1254999999999999,0.0441191755235195,0.0006103515625,0.022806748227048892
0.126,0.0441110767424106,0.00091552734375,0.022609981417120575
0.1264999999999999,0.0441034696996212,0.00030517578125,0.022532981673652024
0.127,0.0440951772034168,0.0,0.022283694810290994
0.1274999999999999,0.0440870486199855,-0.00030517578125,0.022078017743018204
0.128,0.0440794043242931,0.0006103515625,0.021989703599206607
0.1284999999999999,0.0440710000693798,0.00030517578125,0.021714480243750472
0.129,0.0440630502998828,0.00030517578125,0.02155328813835149
0.1294999999999999,0.0440548472106456,0.001220703125,0.02133114884706859
0.13,0.044046826660633,0.0006103515625,0.02115475466585965
0.1304999999999999,0.0440388731658458,0.00091552734375,0.0209941788002122
0.131,0.0440302677452564,0.0006103515625,0.020680839630023574
0.1314999999999999,0.044022724032402,0.00030517578125,0.020622229065787066
0.132,0.0440143086016178,0.0,0.02035497729000556
0.1324999999999999,0.0440061949193477,0.00030517578125,0.020162953316499026
0.133,0.0439982376992702,0.0006103515625,0.020007867488173865
0.1334999999999999,0.0439899750053882,0.00030517578125,0.019782100612075977
0.134,0.0439822226762771,0.00091552734375,0.019675380273754667
0.1344999999999999,0.0439742133021354,0.0006103515625,0.01950683395463763
0.135,0.0439657941460609,0.00091552734375,0.019246159786062287
0.1354999999999999,0.0439580343663692,0.00091552734375,0.019138617077788883
0.136,0.0439496338367462,0.00030517578125,0.018884673459925196
0.1364999999999999,0.0439418070018291,0.0,0.018763106040755095
0.137,0.0439336709678173,0.00030517578125,0.01857055980372096
0.1374999999999999,0.0439251512289047,0.00030517578125,0.01829537250433255
0.138,0.0439179092645645,0.0006103515625,0.018305975049792443
0.1384999999999999,0.043909203261137,0.00030517578125,0.01798766995403841
0.139,0.0439013540744781,0.0006103515625,0.01786433295055337
0.1394999999999999,0.0438933037221431,0.0006103515625,0.017695338356318896
0.14,0.0438851304352283,0.0006103515625,0.017500452095505454
0.1404999999999999,0.0438772700726985,0.0,0.01737440765262492
0.141,0.0438689738512039,0.0006103515625,0.017153782501773567
0.1414999999999999,0.0438609756529331,0.0006103515625,0.01699990590065877
0.142,0.0438524894416332,0.00091552734375,0.016743311518341727
0.1424999999999999,0.0438445731997489,0.0006103515625,0.01661152722259794
0.143,0.043836560100317,0.00030517578125,0.016458142857299695
0.1434999999999999,0.0438281893730163,0.0006103515625,0.016230743432364234
0.144,0.0438201650977134,0.0006103515625,0.016078872909666336
0.1444999999999999,0.0438120923936367,0.0,0.015916963841117657
0.145,0.0438039451837539,0.0006103515625,0.015740397248909226
0.1454999999999999,0.0437959842383861,0.00091552734375,0.015602953030953014
0.146,0.0437877923250198,0.0006103515625,0.015418150821125876
0.1464999999999999,0.0437799878418445,0.00030517578125,0.01531296166303167
0.147,0.0437719114124774,0.0006103515625,0.01515092729858162
0.1474999999999999,0.0437635481357574,0.0006103515625,0.014932741550512309
0.148,0.0437556244432926,0.00030517578125,0.01480536142939872
0.1484999999999999,0.0437476187944412,0.00030517578125,0.014660804240863067
0.149,0.0437394119799137,0.00030517578125,0.014476838829758396
0.1494999999999999,0.0437315329909324,0.00030517578125,0.014358758863174993
