time [s],Lmtc [m],STIM [ ],Fsee [N]
0.0,0.0480145066976547,0.00091552734375,0.2386548750403788
0.0004999999999999,0.0480148568749427,0.0,0.23893347187205655
0.001,0.0480148792266845,0.0,0.2389403239114787
0.0014999999999999,0.0480145961046218,0.00030517578125,0.2387035146937613
0.002,0.0480150543153286,0.0006103515625,0.23906618772832972
0.0024999999999999,0.0480146072804927,0.0006103515625,0.23869441608633538
0.003,0.0480146445333957,0.00030517578125,0.23872265785262414
0.0034999999999999,0.0480148531496524,0.00030517578125,0.23888631850835199
0.004,0.0480146445333957,0.0006103515625,0.23871146232361398
0.0044999999999999,0.0480149015784263,0.0006103515625,0.23891387541026235
0.005,0.0480149798095226,0.0006103515625,0.2389661296972045
0.0054999999999999,0.0480147451162338,0.0006103515625,0.23876741221243464
0.006,0.0480147562921047,0.00030517578125,0.23877217296475228
0.0064999999999999,0.0480140969157218,0.0006103515625,0.238250505321835
0.007,0.0480129048228263,0.00091552734375,0.23735322372527617
0.0074999999999999,0.0480107143521308,0.00030517578125,0.23575861978414886
0.008,0.0480062067508697,0.00030517578125,0.23251621201993264
0.0084999999999999,0.0479998290538787,0.0006103515625,0.22818250601290566
0.009,0.0479915402829647,0.00091552734375,0.22292639772319792
0.0094999999999999,0.0479811131954193,0.0006103515625,0.21687404674375593
0.01,0.0479691959917545,0.00030517578125,0.21086857347152285
0.0104999999999999,0.0479560531675815,0.00030517578125,0.20544183467606028
0.011,0.0479420386254787,0.0,0.20105368337215163
0.0114999999999999,0.0479269735515117,0.0006103515625,0.19754384051034124
0.012,0.0479115769267082,0.00030517578125,0.1951149013180312
0.0124999999999999,0.0478958338499069,0.00030517578125,0.19325839975218717
0.013,0.0478794053196907,0.0006103515625,0.19149149047505637
0.0134999999999999,0.0478639081120491,0.00030517578125,0.19053214497483237
0.014,0.0478478856384754,0.00030517578125,0.1892122417051036
0.0144999999999999,0.0478321090340614,0.0006103515625,0.18812135090686458
0.015,0.0478166975080966,0.00030517578125,0.1871673753746552
0.0154999999999999,0.0478007346391677,0.0006103515625,0.18584706790885278
0.016,0.0477853566408157,0.0006103515625,0.1849236554880425
0.0164999999999999,0.0477702058851718,0.00030517578125,0.18400386624125295
0.017,0.0477546155452728,0.0,0.18277071373937867
0.0174999999999999,0.0477396212518215,0.0006103515625,0.181909193176883
0.018,0.0477242693305015,0.0006103515625,0.18075719131477455
0.0184999999999999,0.0477093793451786,0.00030517578125,0.1798734350729225
0.019,0.0476942062377929,0.00030517578125,0.1787528256385947
0.0194999999999999,0.0476785711944103,0.00030517578125,0.17743688465423574
0.02,0.0476636812090873,0.0,0.17661311362389964
0.0204999999999999,0.0476484298706054,0.00030517578125,0.17548549153616044
0.021,0.0476328693330287,0.00030517578125,0.17424040097937477
0.0214999999999999,0.0476179234683513,0.0006103515625,0.17338975143509786
0.022,0.0476025119423866,0.0,0.17220500986344625
0.0224999999999999,0.0475874096155166,0.00030517578125,0.17124135652421962
0.023,0.0475721172988414,0.0006103515625,0.17013700369045218
0.0234999999999999,0.0475563593208789,0.00030517578125,0.16883091517402746
0.024,0.0475417450070381,0.0006103515625,0.16822049638858738
0.0244999999999999,0.0475266575813293,0.0006103515625,0.16716479772759738
0.025,0.0475112237036228,0.00030517578125,0.16595166725535385
0.0254999999999999,0.0474962778389453,0.0006103515625,0.1650711722112593
0.026,0.0474805869162082,0.0006103515625,0.1637511710714306
0.0264999999999999,0.0474655888974666,0.00030517578125,0.16290859840737865
0.027,0.0474504269659519,0.00030517578125,0.16189479399450515
0.0274999999999999,0.0474349409341812,0.0006103515625,0.160721483809272
0.028,0.0474199838936328,0.00030517578125,0.15987878086423798
0.0284999999999999,0.0474048256874084,0.0006103515625,0.15885773587575128
0.029,0.0473894365131855,0.00030517578125,0.1577313189025852
0.0294999999999999,0.0473745763301849,0.00030517578125,0.1569164804572323
0.03,0.047358963638544,0.0,0.15565080949535517
0.0304999999999999,0.0473440773785114,0.0006103515625,0.15485950106840263
0.031,0.0473289415240287,0.00091552734375,0.15385047474447605
0.0314999999999999,0.0473133660852909,0.0006103515625,0.15263192567910416
0.032,0.0472985357046127,0.00030517578125,0.1518811695242748
0.0324999999999999,0.0472830757498741,0.0,0.15071296966307443
0.033,0.0472678504884243,0.0006103515625,0.14973680714648713
0.0334999999999999,0.047252919524908,0.0006103515625,0.14889713743960833
0.034,0.0472374856472015,0.0006103515625,0.1477555656942927
0.0344999999999999,0.0472225546836853,0.0,0.14692628120999443
0.035,0.0472073331475257,0.00030517578125,0.14589404751925764
0.0354999999999999,0.047191847115755,0.00091552734375,0.14476383502412393
0.036,0.0471771471202373,0.0,0.14407933385078295
0.0364999999999999,0.0471613593399524,0.0006103515625,0.14274805239716865
0.037,0.0471463687717914,0.00030517578125,0.14195677228902664
0.0374999999999999,0.0471312068402767,0.00030517578125,0.14101257353228164
0.038,0.0471157431602478,0.0006103515625,0.1399087150971017
0.0384999999999999,0.0471010841429233,0.00091552734375,0.13926242950027867
0.039,0.0470857731997966,0.00030517578125,0.13818075119943368
0.0394999999999999,0.0470703765749931,0.0006103515625,0.1371114191204037
0.04,0.0470550991594791,-0.00030517578125,0.13614899937254307
0.0404999999999999,0.0470400266349315,0.0006103515625,0.13529227501980762
0.041,0.0470248237252235,0.0,0.13433799252455816
0.0414999999999999,0.0470094829797744,0.00030517578125,0.13332377386660757
0.042,0.0469942614436149,0.00030517578125,0.13239891896677197
0.0424999999999999,0.0469793677330017,0.0006103515625,0.1316249854606325
0.043,0.0469636023044586,0.0,0.13038157638575848
0.0434999999999999,0.0469486452639102,0.00091552734375,0.12964000304266957
0.044,0.0469335652887821,0.0,0.1287678930289931
0.0444999999999999,0.0469181239604949,0.0006103515625,0.1277107204365395
0.045,0.0469032377004623,0.00030517578125,0.12696714796822742
0.0454999999999999,0.0468875914812088,0.00030517578125,0.12580261327883055
0.046,0.0468725152313709,0.0,0.12499857312962899
0.0464999999999999,0.0468576774001121,0.00091552734375,0.12426575507655485
0.047,0.0468420945107936,0.0006103515625,0.12312496966195485
0.0474999999999999,0.0468271672725677,0.0006103515625,0.12238010539052856
0.048,0.0468117818236351,0.0006103515625,0.12136639138807878
0.0484999999999999,0.0467965342104435,0.0,0.12045876307089237
0.049,0.0467814914882183,0.00030517578125,0.1196498928187162
0.0494999999999999,0.0467660091817379,0.00030517578125,0.11861055414609074
0.05,0.0467510148882865,0.00030517578125,0.11784920560429159
0.0504999999999999,0.0467359907925128,0.0006103515625,0.1170311921563254
0.051,0.0467201769351959,-0.00030517578125,0.11583149751426847
0.0514999999999999,0.0467055104672908,0.00091552734375,0.11527204662313405
0.052,0.0466900691390037,0.00030517578125,0.11424430272278592
0.0524999999999999,0.0466747432947158,-0.00030517578125,0.11332273299199165
0.053,0.0466594062745571,0.00030517578125,0.11241397854837615
0.0534999999999999,0.0466442182660102,0.0006103515625,0.11158706124902432
0.054,0.0466288588941097,0.00030517578125,0.11066749951494438
0.0544999999999999,0.0466139651834964,0.0,0.1099797018629135
0.055,0.0465987026691436,0.00030517578125,0.10906507907327574
0.0554999999999999,0.0465837270021438,0.0006103515625,0.10830635351266199
0.056,0.0465679690241813,0.0,0.10716102325571061
0.0564999999999999,0.0465527847409248,0.00030517578125,0.10637023776385264
0.057,0.0465381331741809,0.00030517578125,0.10580101770236351
0.0574999999999999,0.0465226396918296,0.00030517578125,0.10476648425757025
0.058,0.0465072877705097,0.0,0.10386177212653258
0.0584999999999999,0.0464923866093158,0.0006103515625,0.10317945157165205
0.059,0.0464770905673503,0.00030517578125,0.10227129690220188
0.0595,0.0464621037244796,0.00030517578125,0.10152838321469645
0.06,0.0464467294514179,0.00030517578125,0.10058672307013872
0.0605,0.046431615948677,0.00030517578125,0.09979817209345145
0.061,0.0464165695011615,0.0,0.09902945322029995
0.0615,0.0464014150202274,0.00030517578125,0.09819949512737787
0.062,0.0463862121105194,0.00030517578125,0.09735428056791179
0.0625,0.0463708080351352,0.0006103515625,0.09643350949021431
0.0629999999999999,0.0463554784655571,0.0006103515625,0.09558045934581616
0.0635,0.0463406667113304,0.00030517578125,0.09496583713399606
0.0639999999999999,0.0463252253830432,0.00030517578125,0.09401985712697707
0.0645,0.0463103018701076,0.00030517578125,0.09334355719086544
0.0649999999999999,0.0462949536740779,0.00091552734375,0.09244771083922036
0.0655,0.0462797507643699,0.0006103515625,0.0916463535322149
0.0659999999999999,0.046264499425888,0.0,0.09082757175212418
0.0665,0.0462492257356643,0.00030517578125,0.09000825559939549
0.0669999999999999,0.0462340787053108,0.00030517578125,0.08925294858612272
0.0675,0.0462188832461833,0.0006103515625,0.08846880336018749
0.0679999999999999,0.0462037660181522,0.00030517578125,0.08771946755790845
0.0685,0.0461884103715419,0.0006103515625,0.08686300001227346
0.0689999999999999,0.0461732000112533,0.00030517578125,0.0860920325395362
0.0695,0.0461579374969005,0.0006103515625,0.08529806334824903
0.0699999999999999,0.0461429767310619,0.0006103515625,0.08463766796028632
0.0705,0.0461279042065143,0.0006103515625,0.0839036290772417
0.0709999999999999,0.0461123548448085,0.0006103515625,0.0829654670445059
0.0715,0.046097308397293,0.00030517578125,0.08228491440991455
0.0719999999999999,0.0460820421576499,0.00030517578125,0.08149295903572554
0.0725,0.0460669510066509,0.00091552734375,0.08078324107755296
0.0729999999999999,0.0460519604384899,0.0006103515625,0.08010413916624834
0.0735,0.0460366457700729,0.00091552734375,0.07927678552368188
0.0739999999999999,0.0460215099155902,0.00030517578125,0.07854603281956679
0.0745,0.0460062846541404,0.0006103515625,0.07777756986737082
0.0749999999999999,0.0459910295903682,0.0006103515625,0.07700630375866219
0.0755,0.045975774526596,0.00030517578125,0.0762461859788494
0.0759999999999999,0.0459603257477283,0.00030517578125,0.07541683625217724
0.0765,0.0459453836083412,0.00091552734375,0.07481445252391672
0.0769999999999999,0.0459300093352794,0.00030517578125,0.07400841541243824
0.0775,0.045914851129055,0.0006103515625,0.07330935710194993
0.0779999999999999,0.045899748802185,0.0006103515625,0.07262699870360183
0.0785,0.045884221792221,0.00091552734375,0.07177083096628639
0.0789999999999999,0.045869156718254,0.0006103515625,0.0711314979325157
0.0795,0.045853853225708,0.0006103515625,0.07038103920461936
0.0799999999999999,0.0458387546241283,0.0,0.06972081054143468
0.0805,0.0458233244717121,0.00030517578125,0.06892328208121284
0.0809999999999999,0.0458079390227794,0.0,0.0681673858339326
0.0815,0.0457932911813259,0.0,0.06770589693284264
0.0819999999999999,0.0457776933908462,0.00091552734375,0.06682585833099401
0.0825,0.0457625985145568,0.0006103515625,0.0661819606001184
0.0829999999999999,0.0457476265728473,0.0,0.06557343635199155
0.0835,0.0457323417067527,0.00030517578125,0.0648305849971603
0.0839999999999999,0.0457171015441417,0.00091552734375,0.06411984649409885
0.0845,0.0457018129527568,0.00091552734375,0.06339896423318378
0.0849999999999999,0.0456866398453712,0.0006103515625,0.06273175218529996
0.0855,0.045671597123146,-0.00030517578125,0.0621114453465884
0.0859999999999999,0.0456562265753746,0.0,0.06135969914482947
0.0865,0.0456412248313427,0.00030517578125,0.06076167019542482
0.0869999999999999,0.0456262491643428,0.00030517578125,0.06015812257723228
0.0875,0.0456105321645736,0.0006103515625,0.059274785462809725
0.0879999999999999,0.0455958098173141,0.0006103515625,0.05880155123476477
0.0885,0.0455803424119949,0.0,0.058021746938979
0.0889999999999999,0.0455649681389331,0.00030517578125,0.057305055260658905
0.0895,0.0455502495169639,0.0006103515625,0.056835634098904936
0.0899999999999999,0.0455345921218395,0.0006103515625,0.05599597476353935
0.0905,0.0455192886292934,0.00030517578125,0.05532371363454148
0.0909999999999999,0.0455045104026794,0.00091552734375,0.05484179514348513
0.0915,0.0454892180860042,0.00091552734375,0.05414867448885562
0.0919999999999999,0.0454739741981029,0.0,0.05348608465530964
0.0925,0.0454587340354919,0.0006103515625,0.052832164153553025
0.0929999999999999,0.0454435087740421,0.00030517578125,0.052189493924396244
0.0935,0.0454282760620117,0.00030517578125,0.05154912269497866
0.0939999999999999,0.045412790030241,0.0006103515625,0.050827582959319446
0.0945,0.0453980043530464,0.00091552734375,0.05036246192536548
0.0949999999999999,0.0453827306628227,0.0006103515625,0.0497025990160114
0.0955,0.0453671813011169,0.00030517578125,0.048961444769849226
0.0959999999999999,0.0453524887561798,0.00030517578125,0.0485315117264304
0.0965,0.0453371740877628,0.00030517578125,0.047862271265790575
0.0969999999999999,0.0453216657042503,0.0006103515625,0.047144152214754174
0.0975,0.045306596904993,0.0006103515625,0.046592837334766546
0.0979999999999999,0.0452912710607051,0.00030517578125,0.04594946764603607
0.0985,0.0452764779329299,0.0006103515625,0.045487572069206526
0.0989999999999999,0.0452610850334167,0.0006103515625,0.044808659359715335
0.0995,0.04524552449584,0.0006103515625,0.04409479269500273
0.0999999999999999,0.0452309437096118,0.00091552734375,0.04371625164771065
0.1005,0.0452153272926807,0.0,0.042974635782550986
0.1009999999999999,0.0452000238001346,0.0006103515625,0.04236330290898648
0.1015,0.0451848171651363,0.0006103515625,0.041789224153606086
0.1019999999999999,0.0451693087816238,0.00030517578125,0.041122953228513434
0.1025,0.0451544113457202,0.0006103515625,0.04066161864382029
0.1029999999999999,0.045139130204916,0.0006103515625,0.04006399398319843
0.1035,0.0451238788664341,0.00030517578125,0.03948236980509912
0.1039999999999999,0.0451088361442089,0.0006103515625,0.03896791579744548
0.1045,0.0450932122766971,0.0006103515625,0.03827297346613327
0.1049999999999999,0.0450783260166645,0.00030517578125,0.03782304972886082
0.1055,0.0450626276433467,0.0006103515625,0.03711697158577545
0.1059999999999999,0.0450473129749298,0.00091552734375,0.03655232544616748
0.1065,0.0450325272977352,0.00091552734375,0.036144284071888945
0.1069999999999999,0.0450171418488025,-0.00030517578125,0.03553991919693171
0.1075,0.0450018905103206,0.00091552734375,0.03498608914961458
0.1079999999999999,0.0449869818985462,0.0006103515625,0.034533613784529064
0.1085,0.0449716411530971,0.00030517578125,0.03394616583196775
0.1089999999999999,0.0449566580355167,0.0006103515625,0.03347008921423424
0.1095,0.0449412502348423,0.0006103515625,0.032868201249087514
0.1099999999999999,0.044926282018423,0.00030517578125,0.032402358971227875
0.1105,0.0449112206697464,0.00030517578125,0.031903300110211766
0.1109999999999999,0.044895727187395,0.001220703125,0.03128476454082912
0.1115,0.0448803901672363,0.0,0.030726600817533506
0.1119999999999999,0.0448655523359775,0.00030517578125,0.030311065979607595
0.1125,0.0448503196239471,0.00030517578125,0.029776580785985995
0.1129999999999999,0.044835340231657,0.0006103515625,0.02931520369848875
0.1135,0.0448201186954975,0.00030517578125,0.02878594627294121
0.1139999999999999,0.0448045395314693,0.0006103515625,0.02817030126218574
0.1145,0.044789794832468,0.0006103515625,0.027789893768598216
0.1149999999999999,0.0447740778326988,0.00030517578125,0.02714481048035253
0.1155,0.0447592101991176,0.00030517578125,0.026739985290585695
0.1159999999999999,0.0447441227734088,0.0006103515625,0.026268649342187384
0.1165,0.0447288043797016,0.0006103515625,0.025739631101377013
0.1169999999999999,0.0447138622403144,0.0006103515625,0.02531257935571817
0.1175,0.0446987748146057,0.0006103515625,0.024844381838821494
0.118,0.0446833483874797,-0.00030517578125,0.024294879828746157
0.1185,0.0446680821478366,0.0006103515625,0.023797549275128803
0.119,0.0446525961160659,0.00030517578125,0.023254086194918987
0.1195,0.0446374863386154,0.00030517578125,0.02281203194492593
0.12,0.0446223281323909,0.001220703125,0.022357439551036907
0.1205,0.0446070916950702,0.00091552734375,0.021885903973869393
0.121,0.0445920452475547,0.00091552734375,0.021461901574490284
0.1215,0.044576521962881,0.00030517578125,0.020927720398993953
0.122,0.0445617660880088,0.0006103515625,0.02057940007014819
0.1225,0.0445462353527545,0.0006103515625,0.020047745088014823
0.123,0.0445311442017555,0.00091552734375,0.01962699757354958
0.1235,0.044515885412693,0.0006103515625,0.019169138713599234
0.124,0.0445008762180805,0.00030517578125,0.018769947448226416
0.1245,0.0444858819246292,0.00030517578125,0.018371650767414476
0.125,0.0444705672562122,0.00030517578125,0.017904018638215224
0.1254999999999999,0.0444551222026348,0.00030517578125,0.017417236203964973
0.126,0.0444399714469909,0.00030517578125,0.017001601337514466
0.1264999999999999,0.044424895197153,0.001220703125,0.016602821855146024
0.127,0.0444095730781555,0.0,0.016154869715894415
0.1274999999999999,0.0443947203457355,0.0006103515625,0.015806888161977777
0.128,0.0443791300058364,0.00091552734375,0.015309258712011128
0.1284999999999999,0.044364046305418,0.0006103515625,0.014923485813448498
0.129,0.0443487428128719,0.0006103515625,0.014496280345112899
0.1294999999999999,0.0443337522447109,0.00030517578125,0.014133929727583025
0.13,0.0443184562027454,0.0006103515625,0.013713442552436584
0.1304999999999999,0.0443031340837478,0.0006103515625,0.013294248218215465
0.131,0.0442883484065532,0.0006103515625,0.012978268079786378
0.1314999999999999,0.0442726127803325,0.00030517578125,0.012488330914277687
0.132,0.0442571975290775,0.0006103515625,0.012070522637477309
0.1324999999999999,0.0442422851920127,0.00030517578125,0.011746560086382944
0.133,0.0442271307110786,0.00030517578125,0.011378575109164412
0.1334999999999999,0.0442116409540176,0.0,0.010957498461486439
0.134,0.0441966019570827,0.0,0.010619835378694282
0.1344999999999999,0.0441814288496971,0.0006103515625,0.010260664180163345
0.135,0.0441665314137935,0.0006103515625,0.009948576174285262
0.1354999999999999,0.0441510751843452,0.0006103515625,0.009547814125566363
0.136,0.0441358014941215,0.00030517578125,0.009184138731623822
0.1364999999999999,0.0441208556294441,0.0006103515625,0.008875165810735587
0.137,0.0441052168607711,0.00030517578125,0.00846366238083682
0.1374999999999999,0.0440903529524803,0.0006103515625,0.008175834550621493
0.138,0.044075209647417,0.0,0.007846927226905352
0.1384999999999999,0.0440600551664829,0.00091552734375,0.0075201918200901476
0.139,0.0440447814762592,0.0006103515625,0.007181217617743568
0.1394999999999999,0.0440296344459056,0.0006103515625,0.006865043615362337
0.14,0.0440142787992954,0.0006103515625,0.006525753493793318
0.1404999999999999,0.0439994670450687,0.00091552734375,0.006262705296745026
0.141,0.0439841151237487,0.0006103515625,0.005932054450940256
0.1414999999999999,0.0439687557518482,0.00030517578125,0.005608045713955812
0.142,0.0439534969627857,0.0006103515625,0.005303312081867044
0.1424999999999999,0.0439383648335933,0.0,0.005018976353677674
0.143,0.0439235679805278,0.00030517578125,0.004776515196881323
0.1434999999999999,0.0439079068601131,0.0006103515625,0.004441234599311936
0.144,0.0438928045332431,0.0,0.004176148141706072
0.1444999999999999,0.0438775867223739,0.0006103515625,0.0039040328028786208
0.145,0.0438621789216995,0.0006103515625,0.0036196283461578716
0.1454999999999999,0.0438473150134086,0.00091552734375,0.0033951287523148782
0.146,0.0438317842781543,0.00091552734375,0.0031126151537718733
0.1464999999999999,0.0438166297972202,0.00030517578125,0.002873299142792896
0.147,0.043801512569189,0.0,0.00264343892831731
0.1474999999999999,0.0437863059341907,0.00030517578125,0.0024126998201354755
0.148,0.0437710508704185,0.0,0.0021857990411495915
0.1484999999999999,0.0437558554112911,0.0,0.001971546982123618
0.149,0.0437407381832599,0.00030517578125,0.0017707239689151808
0.1494999999999999,0.043725449591875,0.00091552734375,0.0015664750113264056
0.15,0.0437100641429424,-0.00030517578125,0.0013661471786702928
