time [s],Lmtc [m],STIM [ ],Fsee [N]
0.0,0.048014797270298,0.00030517578125,0.2386714179878377
0.0004999999999999,0.0480147823691368,0.0,0.23865953170363172
0.001,0.048014760017395,0.00030517578125,0.23864269977678726
0.0014999999999999,0.0480147078633308,0.0006103515625,0.23860331961189107
0.002,0.0480148792266845,0.0,0.23874268338976287
0.0024999999999999,0.0480149500072002,0.0006103515625,0.23879626343695803
0.003,0.0480147525668144,0.00030517578125,0.2386346505739107
0.0034999999999999,0.0480147339403629,0.00030517578125,0.23862193767204037
0.004,0.048014972358942,0.00091552734375,0.23881329407684668
0.0044999999999999,0.0480151399970054,0.00030517578125,0.23894141945086994
0.005,0.0480148866772651,0.0006103515625,0.2387293977496312
0.0054999999999999,0.0480144508183002,0.0006103515625,0.23838366536251002
0.006,0.0480147823691368,0.00091552734375,0.23866387965740346
0.0064999999999999,0.0480142794549465,0.0,0.23827144080373075
0.007,0.048014149069786,0.00030517578125,0.23819965537722484
0.0074999999999999,0.0480132177472114,0.0,0.23751100730304645
0.008,0.0480116233229637,0.001220703125,0.23636058669816246
0.0084999999999999,0.0480083227157592,0.00091552734375,0.2339948406274468
0.009,0.0480029322206974,0.0006103515625,0.23024925719482428
0.0094999999999999,0.0479958765208721,0.00030517578125,0.2256614055320002
0.01,0.0479862242937088,0.00030517578125,0.21974956315603583
0.0104999999999999,0.0479747131466865,0.00091552734375,0.21347128273647345
0.011,0.0479618236422538,0.0006103515625,0.2075614234204827
0.0114999999999999,0.047947458922863,0.00030517578125,0.2023079421579161
0.012,0.0479319728910923,0.0006103515625,0.1981517077703335
0.0124999999999999,0.0479160398244857,0.00091552734375,0.1953038958339121
0.013,0.0478993393480777,0.00030517578125,0.19304698634715214
0.0134999999999999,0.0478823892772197,0.00030517578125,0.19131885600437565
0.014,0.0478654094040393,0.0006103515625,0.1898941121493386
0.0144999999999999,0.047848667949438,0.0006103515625,0.1887049701031312
0.015,0.0478316619992256,0.00091552734375,0.1873645935456371
0.0154999999999999,0.0478146746754646,0.0,0.186117794406497
0.016,0.0477980785071849,0.0006103515625,0.1850647177730803
0.0164999999999999,0.0477816127240657,0.0,0.18397726519263605
0.017,0.0477650500833988,0.0006103515625,0.18277947718674242
0.0174999999999999,0.0477487556636333,0.00030517578125,0.18172401649772052
0.018,0.0477323085069656,0.0006103515625,0.18052238294352582
0.0184999999999999,0.0477161929011344,-0.00030517578125,0.179508511372851
0.019,0.0477000027894973,0.00030517578125,0.17838524066032876
0.0194999999999999,0.0476833470165729,0.0006103515625,0.1770135941111606
0.02,0.047667633742094,0.0006103515625,0.17623534179149078
0.0204999999999999,0.0476509667932987,0.0006103515625,0.17477876335374015
0.021,0.0476348884403705,0.00030517578125,0.173792332413398
0.0214999999999999,0.0476184077560901,0.00030517578125,0.17252151220142087
0.022,0.0476019978523254,0.00030517578125,0.1713529088542546
0.0224999999999999,0.0475861206650733,0.0006103515625,0.17047043167838072
0.023,0.0475694686174392,0.0,0.16907624143193678
0.0234999999999999,0.0475533902645111,0.0006103515625,0.16811332003059576
0.024,0.0475372932851314,0.00030517578125,0.16705673665502654
0.0244999999999999,0.0475210957229137,0.00091552734375,0.1659228129512354
0.025,0.0475048199295997,0.00030517578125,0.16476920038141762
0.0254999999999999,0.047488372772932,0.00030517578125,0.16355483575787594
0.026,0.0474722310900688,0.0006103515625,0.16254334190121011
0.0264999999999999,0.0474560484290123,0.00091552734375,0.16146559135604727
0.027,0.0474392622709274,0.00030517578125,0.16007813890848135
0.0274999999999999,0.0474233888089656,0.00030517578125,0.15928855827871646
0.028,0.0474070273339748,0.0006103515625,0.15810603954192767
0.0284999999999999,0.0473908111453056,0.00091552734375,0.15704401892651004
0.029,0.0473745353519916,0.00152587890625,0.15594214248323415
0.0294999999999999,0.0473582446575164,0.001220703125,0.1548436985063928
0.03,0.0473423935472965,0.0006103515625,0.1539759641956923
0.0304999999999999,0.0473257154226303,0.0006103515625,0.15260324744960274
0.031,0.0473096221685409,0.00091552734375,0.15165901207525426
0.0314999999999999,0.0472935661673545,0.00091552734375,0.1506742552945119
0.032,0.0472769327461719,0.00030517578125,0.1493692350596328
0.0324999999999999,0.0472612716257572,0.00030517578125,0.14865799583521966
0.033,0.0472444668412208,0.0006103515625,0.14722637256751178
0.0334999999999999,0.0472288466989994,0.00091552734375,0.1465529004346854
0.034,0.0472121946513652,0.0006103515625,0.14520783978261767
0.0344999999999999,0.0471959821879863,0.0006103515625,0.14421653378999236
0.035,0.047180064022541,0.0006103515625,0.14334574437058312
0.0354999999999999,0.0471633151173591,0.00030517578125,0.14199640104784292
0.036,0.0471476502716541,0.0006103515625,0.1413138274769645
0.0364999999999999,0.0471308641135692,0.00030517578125,0.13993177340003535
0.037,0.0471146889030933,0.0,0.13899876998863417
0.0374999999999999,0.0470985732972621,0.00091552734375,0.13805127907080791
0.038,0.0470821149647235,0.00030517578125,0.13690605131429304
0.0384999999999999,0.0470661707222461,0.00030517578125,0.1360636260163245
0.039,0.0470499768853187,0.0006103515625,0.13502990900721604
0.0394999999999999,0.04703364148736,0.0006103515625,0.13394037093738326
0.04,0.0470173731446266,0.0006103515625,0.13292083971765412
0.0404999999999999,0.0470008477568626,0.0006103515625,0.13178489010404107
0.041,0.0469848960638046,0.00030517578125,0.1309745496783206
0.0414999999999999,0.046968538314104,0.00030517578125,0.12989158849832544
0.042,0.0469523482024669,0.0006103515625,0.12892315382420474
0.0424999999999999,0.0469364710152149,0.0006103515625,0.1280944305512852
0.043,0.0469198450446128,0.00091552734375,0.12685069071920213
0.0434999999999999,0.046903982758522,-0.00030517578125,0.1260753651681266
0.044,0.0468877665698528,0.0,0.1250546493794813
0.0444999999999999,0.0468712411820888,0.001220703125,0.12390904263754693
0.045,0.0468551814556121,0.00030517578125,0.12304967266950433
0.0454999999999999,0.0468387007713317,-0.00030517578125,0.12194891344576324
0.046,0.0468226335942745,0.0006103515625,0.12109275220618598
0.0464999999999999,0.0468062981963157,0.00030517578125,0.1200690215803743
0.047,0.0467898920178413,0.0006103515625,0.11903498171681692
0.0474999999999999,0.0467741005122661,0.0,0.11831498339509407
0.048,0.0467575900256633,0.00091552734375,0.11717643231492489
0.0484999999999999,0.0467414930462837,0.0,0.11630273160891533
0.049,0.0467252396047115,0.0006103515625,0.11533088167757945
0.0494999999999999,0.046708844602108,0.0006103515625,0.1143061924759367
0.05,0.0466926358640193,0.0006103515625,0.11340075289059254
0.0504999999999999,0.0466759279370307,0.00030517578125,0.11225611797274948
0.051,0.0466599389910697,0.0006103515625,0.11150989370364164
0.0514999999999999,0.0466438457369804,0.00091552734375,0.11064618079109345
0.052,0.0466274209320545,0.00091552734375,0.10961230678639185
0.0524999999999999,0.0466113202273845,0.0006103515625,0.10876593739831034
0.053,0.0465946979820728,0.0006103515625,0.10766041106474301
0.0534999999999999,0.046578474342823,0.0006103515625,0.10680176879763173
0.054,0.0465620309114456,0.0,0.10582233750834642
0.0544999999999999,0.046545922756195,0.0006103515625,0.10501587638834649
0.055,0.0465302728116512,0.00030517578125,0.10437707180779136
0.0554999999999999,0.0465137660503387,0.00091552734375,0.10326786857124615
0.056,0.0464977845549583,0.0006103515625,0.10246829512687053
0.0564999999999999,0.0464813411235809,0.00030517578125,0.10143375988945728
0.057,0.0464651025831699,0.0,0.10053745098543392
0.0574999999999999,0.0464492551982402,0.00091552734375,0.09981564726752426
0.058,0.0464326739311218,0.00091552734375,0.09872240186367313
0.0584999999999999,0.0464165322482585,0.00030517578125,0.09789411159961911
0.059,0.046400211751461,0.0,0.09697131686801679
0.0595,0.0463839843869209,0.00030517578125,0.09610542448669196
0.06,0.0463681295514106,0.0006103515625,0.09539934173634895
0.0605,0.0463515110313892,0.00030517578125,0.09431330001294988
0.061,0.0463355109095573,0.00030517578125,0.09356501053907589
0.0615,0.0463192015886306,0.0006103515625,0.09264837134249364
0.062,0.0463032126426696,0.0,0.09188729609678332
0.0625,0.0462871007621288,0.00030517578125,0.09104545265258453
0.0629999999999999,0.0462702773511409,0.0006103515625,0.08990413104988289
0.0635,0.0462543591856956,0.0006103515625,0.08923802736622112
0.0639999999999999,0.0462379716336727,0.0,0.08831789399793107
0.0645,0.0462218709290027,0.00030517578125,0.08754320822488919
0.0649999999999999,0.0462057366967201,0.0006103515625,0.08673641630486298
0.0655,0.0461893156170845,0.0006103515625,0.08580360394670611
0.0659999999999999,0.0461732074618339,0.00030517578125,0.08503246461025189
0.0665,0.0461568161845207,0.0,0.08412828622849466
0.0669999999999999,0.0461404286324977,0.00030517578125,0.08325115631991062
0.0675,0.046124167740345,0.00030517578125,0.08244301015635414
0.0679999999999999,0.0461081527173519,0.0006103515625,0.08173266063132682
0.0685,0.0460915230214595,-0.0006103515625,0.08074303061476389
0.0689999999999999,0.0460757166147232,0.00030517578125,0.08013759593091258
0.0695,0.0460594110190868,0.00030517578125,0.07927216459658935
0.0699999999999999,0.0460434034466743,0.00030517578125,0.07854792751033446
0.0705,0.0460267849266529,0.00030517578125,0.07755966516797003
0.0709999999999999,0.0460109040141105,0.0,0.0769196033715705
0.0715,0.0459946356713771,0.00091552734375,0.07608285522353801
0.0719999999999999,0.0459778159856796,0.00030517578125,0.0750440599707981
0.0725,0.0459621474146842,0.0006103515625,0.074529023461161
0.0729999999999999,0.0459456145763397,0.0006103515625,0.07360227471805408
0.0735,0.0459293834865093,0.0006103515625,0.07283579111522356
0.0739999999999999,0.0459132567048072,0.0,0.07210663817786442
0.0745,0.0458970218896865,0.0006103515625,0.07132460920140603
0.0749999999999999,0.0458808504045009,0.00030517578125,0.07057358231218262
0.0755,0.0458641313016414,0.0006103515625,0.06961079383936443
0.0759999999999999,0.0458481311798095,0.0006103515625,0.06897439018017172
0.0765,0.0458319224417209,0.00091552734375,0.06822565462932663
0.0769999999999999,0.0458153448998928,0.0,0.06733685766430728
0.0775,0.0457995273172855,0.001220703125,0.0667702593715134
0.0779999999999999,0.0457831174135208,0.00030517578125,0.06593552505722557
0.0785,0.0457669682800769,0.00030517578125,0.06522284423122543
0.0789999999999999,0.0457505621016025,0.00091552734375,0.06440823241281843
0.0795,0.0457345098257064,0.00030517578125,0.06374490323856388
0.0799999999999999,0.0457182563841342,0.00091552734375,0.06299159960547791
0.0805,0.0457017496228218,0.00030517578125,0.062153071238142475
0.0809999999999999,0.0456856451928615,0.00030517578125,0.061487676556931235
0.0815,0.0456696934998035,0.00030517578125,0.06086307510642828
0.0819999999999999,0.0456535145640373,0.0006103515625,0.06013435053842855
0.0825,0.0456374920904636,0.0006103515625,0.059466409142698406
0.0829999999999999,0.0456208735704422,0.0006103515625,0.05857724420502234
0.0835,0.0456050001084804,0.00030517578125,0.057997780261835094
0.0839999999999999,0.045588418841362,0.0,0.05714052961949971
0.0845,0.045572068542242,0.0006103515625,0.056403366592300004
0.0849999999999999,0.0455562248826026,0.00030517578125,0.055852588555097206
0.0855,0.0455394051969051,0.00030517578125,0.05492986282720883
0.0859999999999999,0.0455238111317157,0.00030517578125,0.05448404785680283
0.0865,0.0455073378980159,0.00030517578125,0.05367990670891562
0.0869999999999999,0.0454908944666385,0.00030517578125,0.05291517716830521
0.0875,0.0454750172793865,0.00091552734375,0.052362628868560294
0.0879999999999999,0.0454585887491703,0.00030517578125,0.05159639796286175
0.0885,0.0454425625503063,0.0,0.05098750354736662
0.0889999999999999,0.0454261116683483,0.0006103515625,0.05022524284211124
0.0895,0.0454096160829067,0.0,0.049471133646413555
0.0899999999999999,0.0453932508826255,0.00030517578125,0.04878034518444553
0.0905,0.0453769825398922,0.00030517578125,0.04812832534859884
0.0909999999999999,0.0453610382974147,0.0006103515625,0.04758057652316052
0.0915,0.045344665646553,0.00030517578125,0.04687160374049698
0.0919999999999999,0.0453284382820129,0.0,0.046222775803063054
0.0925,0.0453124716877937,0.0006103515625,0.045658695982817334
0.0929999999999999,0.04529595002532,0.00030517578125,0.044902653105760464
0.0935,0.0452800840139389,0.0006103515625,0.04437987569729521
0.0939999999999999,0.0452636443078517,0.0,0.043654393950902315
0.0945,0.0452477037906646,0.00030517578125,0.043105681289707425
0.0949999999999999,0.0452311150729656,0.0006103515625,0.042341644511373594
0.0955,0.0452149026095867,0.0006103515625,0.041723733489851034
0.0959999999999999,0.0451986454427242,0.00091552734375,0.041092674774747866
0.0965,0.0451821386814117,0.00030517578125,0.04038977237544885
0.0969999999999999,0.0451661869883537,-0.00030517578125,0.03987236857811576
0.0975,0.0451497882604599,0.0,0.03920323079815734
0.0979999999999999,0.0451334863901138,0.0006103515625,0.03857616481730714
0.0985,0.0451174117624759,0.00030517578125,0.03802172137283697
0.0989999999999999,0.0451007522642612,0.001220703125,0.037288657659691984
0.0995,0.0450845994055271,0.00030517578125,0.03673066092261196
0.0999999999999999,0.0450682267546653,0.0,0.036103718637299054
0.1005,0.045051671564579,0.00091552734375,0.03543285786201684
0.1009999999999999,0.045036032795906,0.0,0.03503834251776178
0.1015,0.045019619166851,0.0006103515625,0.03439045565236733
0.1019999999999999,0.0450032986700534,0.0006103515625,0.033783075156351663
0.1025,0.04498727992177,0.00030517578125,0.033266801881172474
0.1029999999999999,0.0449709594249725,0.0006103515625,0.032658572003173146
0.1035,0.0449548661708831,0.0006103515625,0.03212142100441739
0.1039999999999999,0.0449384562671184,0.00091552734375,0.03149451962059791
0.1045,0.0449226945638656,0.00030517578125,0.03105562874367327
0.1049999999999999,0.0449064522981643,0.00030517578125,0.030469848947572452
0.1055,0.0448899045586586,0.00030517578125,0.029810980619645176
0.1059999999999999,0.044874008744955,0.00030517578125,0.029343855511194002
0.1065,0.0448575727641582,0.00030517578125,0.028723971295198197
0.1069999999999999,0.0448413640260696,0.00030517578125,0.028177577780926548
0.1075,0.0448253750801086,0.00091552734375,0.027690343036738854
0.1079999999999999,0.0448090694844722,0.00030517578125,0.02711688010461677
0.1085,0.0447927974164485,0.0006103515625,0.02656087791474618
0.1089999999999999,0.0447764880955219,0.0006103515625,0.026002070349570777
0.1095,0.0447603277862072,0.00091552734375,0.02548753574863206
0.1099999999999999,0.0447441823780536,0.00091552734375,0.024977653216911765
0.1105,0.0447277687489986,0.0006103515625,0.024403744047167518
0.1109999999999999,0.0447116382420063,0.0006103515625,0.02390914452111536
0.1115,0.0446953810751438,0.00030517578125,0.023384038402703214
0.1119999999999999,0.0446792691946029,0.0,0.022897906269184237
0.1125,0.0446631126105785,0.0006103515625,0.022400882494328072
0.1129999999999999,0.0446462370455265,0.0006103515625,0.021740898911510452
0.1135,0.0446304753422737,0.0,0.021361296187762058
0.1139999999999999,0.0446142479777336,0.0006103515625,0.02086219996116605
0.1145,0.0445979572832584,0.00030517578125,0.02035305402516025
0.1149999999999999,0.0445817001163959,0.00030517578125,0.019857314981145124
0.1155,0.0445655100047588,0.00030517578125,0.019380784880561712
0.1159999999999999,0.0445493943989276,0.0,0.018922797467288244
0.1165,0.0445329435169696,0.00030517578125,0.018394038847902805
0.1169999999999999,0.044516559690237,0.00030517578125,0.01789034124737378
0.1175,0.0445006117224693,0.00030517578125,0.01748479932869542
0.118,0.0444842986762523,0.00030517578125,0.016999404600120206
0.1185,0.0444681495428085,0.00030517578125,0.0165537479458546
0.119,0.0444521084427833,0.00091552734375,0.01613134451183204
0.1195,0.0444357097148895,-0.00030517578125,0.015637728460003195
0.12,0.0444196127355098,0.00030517578125,0.0152125372687341
0.1205,0.0444027073681354,0.0006103515625,0.01463385219596593
0.121,0.0443869046866893,0.001220703125,0.014284107633403218
0.1215,0.0443706698715686,0.0,0.013845940416335922
0.122,0.0443543568253517,0.0006103515625,0.013397737734904798
0.1225,0.044338408857584,0.00030517578125,0.013021449967927114
0.123,0.0443218015134334,0.00030517578125,0.012526026212072622
0.1235,0.0443054474890232,0.00030517578125,0.012088411522429156
0.124,0.0442891307175159,0.0006103515625,0.011663550321948305
0.1245,0.044273093342781,0.0006103515625,0.011291243322289308
0.125,0.04425710439682,0.00030517578125,0.010926760115660343
0.1254999999999999,0.0442403741180896,0.0006103515625,0.01044096445905566
0.126,0.0442246720194816,0.0006103515625,0.01013426422124042
0.1264999999999999,0.0442081727087497,0.00030517578125,0.009696000924102393
0.127,0.0441917441785335,0.00030517578125,0.009279112931632924
0.1274999999999999,0.0441755875945091,0.0006103515625,0.008911558723839105
0.128,0.0441593043506145,0.00091552734375,0.008528261860487345
0.1284999999999999,0.044143408536911,0.00091552734375,0.008206578903490684
0.129,0.0441269613802433,0.0,0.007806014928405265
0.1294999999999999,0.0441108383238315,0.0006103515625,0.007459424293746936
0.13,0.0440946891903877,0.00030517578125,0.00711288609877302
0.1304999999999999,0.044078029692173,0.0006103515625,0.006703403588689844
0.131,0.0440620295703411,0.0,0.006390751323691795
0.1314999999999999,0.0440460070967674,0.0006103515625,0.006077120039745295
0.132,0.0440296903252601,0.00030517578125,0.005730361446218302
0.1324999999999999,0.0440137982368469,0.0006103515625,0.005441406310418398
0.133,0.043997123837471,0.0,0.005064034186436107
0.1334999999999999,0.0439811050891876,0.0006103515625,0.004772663174184929
0.134,0.0439649298787117,0.00030517578125,0.004468092607186905
0.1344999999999999,0.0439486466348171,0.00030517578125,0.0041584574903689095
0.135,0.0439323596656322,0.0006103515625,0.0038563502256135306
0.1354999999999999,0.0439159721136093,0.00030517578125,0.0035526102813648692
0.136,0.0438999347388744,0.00030517578125,0.003290881028355393
0.1364999999999999,0.043883491307497,-0.0006103515625,0.0029984348885766887
0.137,0.0438672229647636,0.0006103515625,0.0027315656028110247
0.1374999999999999,0.0438512340188026,0.00091552734375,0.0024962008994620045
0.138,0.043834738433361,0.00030517578125,0.002227865481566006
0.1384999999999999,0.0438187718391418,0.00030517578125,0.0020103864661561765
0.139,0.0438019931316375,0.00030517578125,0.00174397870311319
0.1394999999999999,0.043786235153675,0.00030517578125,0.0015593150913369212
0.14,0.0437700971961021,0.00030517578125,0.0013575454785005596
0.1404999999999999,0.043753370642662,0.001220703125,0.0011335185215104555
0.141,0.0437376610934734,0.0006103515625,0.0009785604518096408
0.1414999999999999,0.0437209084630012,0.00030517578125,0.0007825353924588127
0.142,0.043704979121685,0.00030517578125,0.0006396810830172937
0.1424999999999999,0.0436890497803688,0.0006103515625,0.000508165760901474
0.143,0.0436724610626697,0.00030517578125,0.00036790029377209665
0.1434999999999999,0.043656125664711,0.0006103515625,0.0002547943272514087
0.144,0.0436399467289447,0.001220703125,0.00016382487094472882
0.1444999999999999,0.0436239838600158,0.00030517578125,9.478540849096722e-05
0.145,0.0436076819896698,0.0006103515625,3.977746036743965e-05
0.1454999999999999,0.0435910522937774,0.00091552734375,6.340997812702238e-06
0.146,0.0435752384364604,0.0006103515625,0.0
0.1464999999999999,0.0435586273670196,0.0006103515625,0.0
0.147,0.0435424372553825,0.0,0.0
0.1474999999999999,0.0435263738036155,0.00091552734375,0.0
0.148,0.0435096584260463,0.0,0.0
0.1484999999999999,0.0434937924146652,0.00030517578125,0.0
0.149,0.0434773229062557,0.00091552734375,0.0
0.1494999999999999,0.0434613861143589,0.0,0.0
0.15,0.0434446707367897,0.0006103515625,0.0
0.1504999999999999,0.0434282049536705,0.00030517578125,0.0
0.151,0.0434124432504177,0.00030517578125,0.0
0.1514999999999999,0.0433960668742656,0.00030517578125,0.0
