time [s],Lmtc [m],STIM [ ],Fsee [N]
0.0,0.0460066199302673,0.0,0.14339243302750662
0.0004999999999999,0.046006616204977,0.00030517578125,0.14338997328816505
0.001,0.0460068881511688,0.00030517578125,0.143559450706564
0.0014999999999999,0.0460063368082046,0.00030517578125,0.14321307876532743
0.002,0.0460069552063941,0.00030517578125,0.1436021868252996
0.0024999999999999,0.0460068471729755,0.00030517578125,0.14353128560123102
0.003,0.04600665345788,0.0,0.14340818098954378
0.0034999999999999,0.0460066795349121,0.00030517578125,0.14342413244196922
0.004,0.0460066050291061,0.0006103515625,0.1433771808646454
0.0044999999999999,0.046006865799427,0.0006103515625,0.1435399428155849
0.005,0.0460063144564628,0.0,0.14319480333402895
0.0054999999999999,0.0460068508982658,0.00030517578125,0.14353355059204712
0.006,0.0460067652165889,0.00030517578125,0.14347764777452243
0.0064999999999999,0.046006441116333,0.0006103515625,0.14327445176730055
0.007,0.0460066758096218,0.0006103515625,0.14342350142515306
0.0074999999999999,0.0460060015320777,0.00091552734375,0.1430059646765506
0.008,0.0460055172443389,0.0,0.1427201301803415
0.0084999999999999,0.0460038483142852,0.0006103515625,0.14171601131169817
0.009,0.0460018292069435,0.0006103515625,0.14053499053744986
0.0094999999999999,0.0459993332624435,0.0006103515625,0.13911019755959328
0.01,0.0459958501160144,0.0,0.13714569386034597
0.0104999999999999,0.0459923669695854,0.0006103515625,0.13526644204089483
0.011,0.0459887608885765,0.0006103515625,0.13339693940791478
0.0114999999999999,0.0459845960140228,0.00030517578125,0.13128268917146949
0.012,0.0459805838763713,0.0006103515625,0.12935856167189222
0.0124999999999999,0.0459762178361415,0.00030517578125,0.12732198490298952
0.013,0.0459723100066185,0.00091552734375,0.1256515297946163
0.0134999999999999,0.0459680743515491,0.00091552734375,0.12387744486871143
0.014,0.0459638647735118,0.0006103515625,0.12221017898173009
0.0144999999999999,0.0459600314497947,0.0006103515625,0.12084307306971995
0.015,0.045955367386341,-0.00030517578125,0.11908261028625458
0.0154999999999999,0.0459517985582351,0.00091552734375,0.11802842672404745
0.016,0.0459475591778755,0.00030517578125,0.116658741859389
0.0164999999999999,0.0459435656666755,0.0006103515625,0.1155005176337204
0.017,0.0459395460784435,0.0006103515625,0.11439213152570225
0.0174999999999999,0.045935183763504,-0.0006103515625,0.11315941350738874
0.018,0.0459312461316585,0.0006103515625,0.11222757166743325
0.0184999999999999,0.0459270998835563,0.00091552734375,0.11123554423173786
0.019,0.0459230728447437,0.0006103515625,0.11036420745658218
0.0194999999999999,0.0459188669919967,0.00030517578125,0.10944680191083818
0.02,0.0459148250520229,0.0006103515625,0.10866944056301844
0.0204999999999999,0.0459109283983707,0.0006103515625,0.10801287535551224
0.021,0.0459066033363342,0.0006103515625,0.10716611879256008
0.0214999999999999,0.0459025502204895,0.00030517578125,0.10651087231459239
0.022,0.0458989329636096,0.0,0.10611992031708249
0.0224999999999999,0.0458945073187351,0.0006103515625,0.10532471484497476
0.023,0.0458905845880508,0.00030517578125,0.10483767045737635
0.0234999999999999,0.0458865463733673,0.0006103515625,0.10431519052830639
0.024,0.0458823777735233,0.0006103515625,0.10375222221364332
0.0244999999999999,0.045878529548645,0.0006103515625,0.10338465097360017
0.025,0.045874286442995,0.0006103515625,0.10282947121117328
0.0254999999999999,0.0458705127239227,0.001220703125,0.102544758834687
0.026,0.0458664707839489,0.0006103515625,0.1021321579965715
0.0264999999999999,0.0458623804152011,0.0006103515625,0.10171365822613097
0.027,0.0458585768938064,0.0,0.10146118311298277
0.0274999999999999,0.0458543114364147,0.00091552734375,0.1009808078986375
0.028,0.0458500832319259,0.00030517578125,0.10054344594971236
0.0284999999999999,0.0458463095128536,0.00091552734375,0.10035736128613199
0.029,0.0458422303199768,0.0,0.10001844430371774
0.0294999999999999,0.0458380728960037,0.0,0.09965370928667974
0.03,0.0458337850868701,0.00030517578125,0.0992384217718555
0.0304999999999999,0.0458303466439247,0.00030517578125,0.09927055667259282
0.031,0.045826070010662,0.00030517578125,0.0988657636130888
0.0314999999999999,0.0458220280706882,0.0006103515625,0.09859739820783159
0.032,0.0458179377019405,0.0,0.09831268573998464
0.0324999999999999,0.0458140671253204,0.0006103515625,0.09814738955060621
0.033,0.0458100214600563,0.0006103515625,0.09789453780690344
0.0334999999999999,0.0458058007061481,0.0006103515625,0.09756067281414764
0.034,0.0458019562065601,0.00030517578125,0.09742780244755904
0.0344999999999999,0.0457980223000049,0.00030517578125,0.09724846953002582
0.035,0.0457936860620975,0.00091552734375,0.09686953187467867
0.0354999999999999,0.0457899682223796,0.00091552734375,0.09681494842102793
0.036,0.0457855910062789,0.0006103515625,0.09642388435029874
0.0364999999999999,0.0457816496491432,0.00091552734375,0.09626622519860815
0.037,0.0457776486873626,0.00030517578125,0.09607849123349632
0.0374999999999999,0.0457735061645507,0.001220703125,0.09582235578856933
0.038,0.0457694828510284,0.00030517578125,0.09563215594094165
0.0384999999999999,0.0457653701305389,0.00030517578125,0.09539915814833184
0.039,0.0457617416977882,0.00030517578125,0.09541093284933766
0.0394999999999999,0.0457575470209121,0.0006103515625,0.09513017761480953
0.04,0.045753501355648,0.00030517578125,0.09493170928199876
0.0404999999999999,0.0457495488226413,0.00091552734375,0.09478137126479275
0.041,0.0457457937300205,0.00030517578125,0.0947274850594675
0.0414999999999999,0.0457415804266929,0.0006103515625,0.09444004550710085
0.042,0.0457376055419445,0.00091552734375,0.09427915639088169
0.0424999999999999,0.0457335449755191,0.0,0.09407627508696592
0.043,0.0457292199134826,0.00030517578125,0.09374639287968192
0.0434999999999999,0.0457251742482185,0.00030517578125,0.09356506036445145
0.044,0.0457215644419193,0.00030517578125,0.09359874763754124
0.0444999999999999,0.0457175485789775,0.00091552734375,0.093419697538466
0.045,0.0457133576273918,0.00030517578125,0.09315611585226079
0.0454999999999999,0.0457095876336097,0.00030517578125,0.09310581746137216
0.046,0.0457053557038307,0.00030517578125,0.09282154416288621
0.0464999999999999,0.0457015708088874,0.0,0.09276452565411167
0.047,0.0456973128020763,0.0006103515625,0.09246900600360089
0.0474999999999999,0.045693352818489,0.0006103515625,0.09232839600752019
0.048,0.045689221471548,0.0,0.09210278059466025
0.0484999999999999,0.0456851571798324,0.0,0.0919139260153079
0.049,0.0456815063953399,0.00091552734375,0.09192806980410122
0.0494999999999999,0.0456773042678833,0.00030517578125,0.09166233511139991
0.05,0.045673057436943,0.00091552734375,0.09138249338225338
0.0504999999999999,0.0456692278385162,0.00091552734375,0.09131270969877839
0.051,0.0456655621528625,0.0,0.0913158742826467
0.0514999999999999,0.045661125332117,0.00030517578125,0.09093463723489717
0.052,0.0456569120287895,0.00030517578125,0.09067744161860845
0.0524999999999999,0.0456532351672649,0.00091552734375,0.09068592756848197
0.053,0.0456490777432918,0.00030517578125,0.09045032234505
0.0534999999999999,0.0456448569893837,0.00030517578125,0.09018944681491246
0.054,0.0456410311162471,-0.00030517578125,0.09012596729976079
0.0544999999999999,0.0456371493637561,0.001220703125,0.09002862273012152
0.055,0.0456332862377166,0.0006103515625,0.08993583525880199
0.0554999999999999,0.0456291250884532,0.00091552734375,0.0896953828358933
0.056,0.045624990016222,0.0006103515625,0.08947325289480779
0.0564999999999999,0.0456212684512138,0.0006103515625,0.08945428543058982
0.057,0.0456167571246624,0.00030517578125,0.08904671169933664
0.0574999999999999,0.0456128790974617,0.00030517578125,0.08895947203029655
0.058,0.0456090085208416,0.0006103515625,0.08887074368633929
0.0584999999999999,0.0456049367785453,0.0006103515625,0.08868094868074099
0.059,0.0456010624766349,0.0,0.08858772489427007
0.0595,0.0455968901515007,0.0006103515625,0.08834774165057883
0.06,0.0455929525196552,0.00030517578125,0.08822547799158706
0.0605,0.0455889925360679,0.0006103515625,0.088090141821849
0.061,0.0455849133431911,0.00091552734375,0.08789647920228807
0.0615,0.0455809459090232,0.0006103515625,0.08775861095030058
0.062,0.0455767959356308,0.00030517578125,0.08753261903128869
0.0625,0.0455725081264972,0.00030517578125,0.08724575163192023
0.0629999999999999,0.045568760484457,0.0006103515625,0.08722408805069176
0.0635,0.0455647408962249,0.001220703125,0.08706414698259167
0.0639999999999999,0.0455608628690242,0.0,0.0869714937233789
0.0645,0.0455568917095661,0.0006103515625,0.08683052926388879
0.0649999999999999,0.0455528162419796,0.00030517578125,0.08663919004286312
0.0655,0.0455485954880714,0.00091552734375,0.0863817190940019
0.0659999999999999,0.0455445721745491,0.00091552734375,0.08622445545836566
0.0665,0.0455406755208969,0.0006103515625,0.08612705227151128
0.0669999999999999,0.0455364808440208,0.0006103515625,0.08588522389528065
0.0675,0.0455324612557888,0.00091552734375,0.08573130064839128
0.0679999999999999,0.0455287732183933,0.0006103515625,0.08573322693479377
0.0685,0.0455245561897754,0.0006103515625,0.08547591530894084
0.0689999999999999,0.0455207601189613,0.00030517578125,0.08542335256592079
0.0695,0.045516338199377,0.0006103515625,0.08507043378674359
0.0699999999999999,0.045512355864048,0.00030517578125,0.08493710727426822
0.0705,0.0455084107816219,0.00030517578125,0.08481979595011481
0.0709999999999999,0.0455042161047458,0.00030517578125,0.08458321240597064
0.0715,0.0455001406371593,0.0006103515625,0.08440760192083231
0.0719999999999999,0.0454963520169258,0.00091552734375,0.08436733621392015
0.0725,0.0454925820231437,0.00030517578125,0.08432865909976793
0.0729999999999999,0.0454880967736244,0.0006103515625,0.083948719501385
0.0735,0.0454842373728752,0.00091552734375,0.08387495063882061
0.0739999999999999,0.0454805046319961,0.0006103515625,0.08385480114115747
0.0745,0.0454760901629924,0.00030517578125,0.08350912357848574
0.0749999999999999,0.0454720556735992,0.00091552734375,0.08335300575622372
0.0755,0.0454677306115627,0.00030517578125,0.08306191331017988
0.0759999999999999,0.0454641468822956,0.0006103515625,0.08312361788115026
0.0765,0.045460045337677,0.0006103515625,0.08293168294979991
0.0769999999999999,0.0454557612538337,0.0006103515625,0.08265798831890317
0.0775,0.0454523377120494,0.0006103515625,0.08279036826197529
0.0779999999999999,0.0454477742314338,0.00030517578125,0.08237700338961902
0.0785,0.0454438738524913,0.0006103515625,0.082286809666143
0.0789999999999999,0.0454399585723876,0.0006103515625,0.08218564784894151
0.0795,0.0454357415437698,0.001220703125,0.08194215983490091
0.0799999999999999,0.0454318933188915,0.0006103515625,0.08187456716641373
0.0805,0.0454275719821453,0.0,0.08158389353046316
0.0809999999999999,0.0454237461090087,0.00030517578125,0.08153008967743611
0.0815,0.0454194284975528,0.00030517578125,0.08124427159873797
0.0819999999999999,0.0454155132174491,0.0006103515625,0.08115183436962706
0.0825,0.0454116612672805,0.00091552734375,0.08108479701853875
0.0829999999999999,0.0454073138535022,0.00030517578125,0.08078549896539768
0.0835,0.0454036667943,0.00030517578125,0.08081606470024034
0.0839999999999999,0.0453994907438755,0.0006103515625,0.08059302053672181
0.0845,0.0453955084085464,0.001220703125,0.0804632481987076
0.0849999999999999,0.0453914739191532,0.0,0.0803083956268938
0.0855,0.0453872829675674,0.00091552734375,0.0800823625906369
0.0859999999999999,0.045383621007204,0.00030517578125,0.08010223498525927
0.0865,0.0453794635832309,0.00091552734375,0.0798861103123334
0.0869999999999999,0.0453752391040325,0.0006103515625,0.07964397588163626
0.0875,0.0453713722527027,0.0006103515625,0.0795701343846651
0.0879999999999999,0.045367281883955,0.0006103515625,0.07939003044717784
0.0885,0.045363325625658,0.0006103515625,0.07927251960227431
0.0889999999999999,0.0453595966100692,0.0006103515625,0.07925602792179418
0.0895,0.0453555025160312,0.0006103515625,0.07906623253171105
0.0899999999999999,0.0453512780368328,0.0,0.0788202721707689
0.0905,0.0453470274806022,0.0,0.07856859213814507
0.0909999999999999,0.045343343168497,0.0,0.07857915187128563
0.0915,0.0453391745686531,0.0,0.07836149930738734
0.0919999999999999,0.0453350953757762,0.0006103515625,0.0781887226312614
0.0925,0.0453309677541255,0.001220703125,0.077995412152286
0.0929999999999999,0.045327391475439,0.0006103515625,0.07805303857708151
0.0935,0.0453231260180473,0.00030517578125,0.07778842968620553
0.0939999999999999,0.0453189648687839,0.00030517578125,0.07757833203021512
0.0945,0.045315247029066,0.00091552734375,0.07757095445336142
0.0949999999999999,0.0453111305832862,0.0,0.07737612415022257
0.0955,0.0453071966767311,0.0006103515625,0.07726603960860835
0.0959999999999999,0.0453033708035945,0.00030517578125,0.07720211079099297
0.0965,0.0452987812459468,0.00030517578125,0.07679201173461211
0.0969999999999999,0.045294851064682,0.00030517578125,0.07669317531890373
0.0975,0.0452910661697387,0.0,0.07665625656172141
0.0979999999999999,0.045286800712347,0.00091552734375,0.07639838628218162
0.0985,0.0452828034758567,0.001220703125,0.0762669430745729
0.0989999999999999,0.0452788285911083,0.0006103515625,0.07614462526244868
0.0995,0.0452747195959091,0.00091552734375,0.07596153231777482
0.0999999999999999,0.0452705696225166,0.0006103515625,0.0757627493181456
0.1005,0.0452667027711868,0.0006103515625,0.07569252309989748
0.1009999999999999,0.045262973755598,0.00091552734375,0.07567880854326052
0.1015,0.045258417725563,0.0,0.07529107756944069
0.1019999999999999,0.0452546440064907,0.0006103515625,0.07526464950635224
0.1025,0.0452506020665168,0.00030517578125,0.07511252717630205
0.1029999999999999,0.04524652287364,0.00030517578125,0.07494455470083448
0.1035,0.0452427119016647,0.0006103515625,0.07489660656604626
0.1039999999999999,0.0452383793890476,0.00030517578125,0.07461296889578853
0.1045,0.0452349074184894,0.00030517578125,0.0747170797633879
0.1049999999999999,0.0452304221689701,0.0,0.07436006740172688
0.1055,0.0452264435589313,0.0006103515625,0.07423886064992527
0.1059999999999999,0.0452225282788276,0.00091552734375,0.074144187473309
0.1065,0.0452184900641441,0.0006103515625,0.07399273592175945
0.1069999999999999,0.0452145487070083,0.00030517578125,0.07388438385640407
0.1075,0.0452102720737457,0.0006103515625,0.07362735779514418
0.1079999999999999,0.0452062748372554,0.00091552734375,0.07349971568470527
0.1085,0.0452025420963764,0.0006103515625,0.07348683820673466
0.1089999999999999,0.0451983697712421,0.00091552734375,0.07327416104221006
0.1095,0.0451941452920436,-0.00030517578125,0.07304343131649006
0.1099999999999999,0.0451899282634258,0.0006103515625,0.07282157632768169
0.1105,0.0451860688626766,0.00030517578125,0.07275986613864593
0.1109999999999999,0.0451822653412818,0.00091552734375,0.0727176729298531
0.1115,0.0451782047748565,0.0006103515625,0.07255826138379562
0.1119999999999999,0.0451739206910133,0.00030517578125,0.07230310234924532
0.1125,0.0451699495315551,0.00030517578125,0.07219026649597364
0.1129999999999999,0.0451661832630634,0.00030517578125,0.07216458707965352
0.1135,0.0451621413230896,0.00030517578125,0.0720131641736201
0.1139999999999999,0.0451577790081501,0.001220703125,0.07172403620198703
0.1145,0.0451540723443031,0.001220703125,0.07172701626384578
0.1149999999999999,0.04514991492033,0.0,0.0715268766258433
0.1155,0.0451460778713226,0.00030517578125,0.07146888387205241
0.1159999999999999,0.045141689479351,0.0006103515625,0.07116855089254433
0.1165,0.0451377481222152,0.0006103515625,0.07107018623851809
0.1169999999999999,0.0451337061822414,0.0006103515625,0.07092620564275884
0.1175,0.0451297312974929,0.0006103515625,0.0708113198233148
0.118,0.0451258160173893,0.00030517578125,0.07072066459565834
0.1185,0.0451216958463192,0.0,0.07053936264403743
0.119,0.0451178513467311,0.00030517578125,0.07047883237086772
0.1195,0.0451135784387588,0.00030517578125,0.07023035502851165
0.12,0.04510984942317,0.00030517578125,0.07022114667221642
0.1205,0.0451057143509388,0.0,0.07003105027904383
0.121,0.045101698487997,0.0,0.0698950922261738
0.1215,0.0450974106788635,0.0,0.06964327467701642
0.122,0.0450934059917926,0.0006103515625,0.06951893816474403
0.1225,0.0450894273817539,0.0006103515625,0.06940492956206369
0.123,0.0450854189693927,-0.00030517578125,0.06927697504753298
0.1235,0.0450812019407749,0.0,0.0690599342023873
0.124,0.0450774207711219,0.00091552734375,0.06903258156473746
0.1245,0.045073315501213,0.00030517578125,0.06886187384247255
0.125,0.045069009065628,0.0006103515625,0.06860820160306838
0.1254999999999999,0.0450652502477169,0.0006103515625,0.06859301672224874
0.126,0.0450608916580677,0.0,0.06831747002230522
0.1264999999999999,0.0450570546090602,0.0,0.06826992173542572
0.127,0.0450532212853431,0.00030517578125,0.06821887177120892
0.1274999999999999,0.0450489185750484,0.0,0.06796563313179947
0.128,0.0450446680188179,0.0006103515625,0.0677414498436519
0.1284999999999999,0.0450409390032291,0.0006103515625,0.0677413530207943
0.129,0.0450369603931903,0.0006103515625,0.0676286509022191
0.1294999999999999,0.0450329966843128,0.0,0.067521238281093
0.13,0.0450287833809852,0.00030517578125,0.06730770212154864
0.1304999999999999,0.0450249277055263,0.0006103515625,0.06724867953003479
0.131,0.0450206585228443,0.00091552734375,0.06701236308446551
0.1314999999999999,0.0450167134404182,0.0,0.06691733811243011
0.132,0.0450127832591533,0.00030517578125,0.06682637181186885
0.1324999999999999,0.0450085885822773,0.00091552734375,0.0666227567544142
0.133,0.0450046434998512,0.00091552734375,0.06652732058135015
0.1334999999999999,0.0450004488229751,0.0006103515625,0.0663256728580333
0.134,0.0449968054890632,0.0,0.06635741246487172
0.1344999999999999,0.0449923388659954,0.0,0.06603766422498233
0.135,0.0449886918067932,0.0006103515625,0.0660690462795431
0.1354999999999999,0.0449847504496574,0.0006103515625,0.06596926278901682
0.136,0.0449806042015552,0.0006103515625,0.06578277603063135
0.1364999999999999,0.0449769012629985,0.00030517578125,0.06578342091200146
0.137,0.0449723340570926,-0.00030517578125,0.06541893343598165
0.1374999999999999,0.0449687540531158,0.0006103515625,0.0654754738492454
0.138,0.0449648238718509,0.00030517578125,0.06537679878492847
0.1384999999999999,0.0449604615569114,0.0006103515625,0.06509788236920071
0.139,0.044957049190998,0.00030517578125,0.06521926087005803
0.1394999999999999,0.0449524596333503,0.0006103515625,0.06484174116158621
0.14,0.0449485443532466,0.0006103515625,0.06475592098582099
0.1404999999999999,0.0449446886777877,0.00091552734375,0.06469205922090969
0.141,0.0449407026171684,0.0006103515625,0.06457099727397123
0.1414999999999999,0.0449365861713886,0.0006103515625,0.06439626703232564
0.142,0.0449323542416095,0.0006103515625,0.06417689640785942
0.1424999999999999,0.0449287109076976,0.00030517578125,0.06420358323580512
0.143,0.0449244603514671,0.0,0.06397314602950978
0.1434999999999999,0.0449203699827194,0.0006103515625,0.06381382797707986
0.144,0.0449165627360343,0.0006103515625,0.06377188394084261
0.1444999999999999,0.0449125207960605,0.0006103515625,0.06362968840602287
0.145,0.0449083112180233,0.00030517578125,0.06342007209561142
0.1454999999999999,0.0449043996632099,0.00030517578125,0.0633362500718776
0.146,0.0449003688991069,0.0006103515625,0.06320156413249291
0.1464999999999999,0.0448964722454547,0.00091552734375,0.06312199875493357
0.147,0.0448921807110309,0.00030517578125,0.06287959045831774
0.1474999999999999,0.044888611882925,0.0,0.06293663662606135
0.148,0.04488430544734,0.0,0.06268466684751112
0.1484999999999999,0.0448802337050437,0.0,0.06253450272893032
0.149,0.0448765009641647,0.0006103515625,0.06252276681965452
0.1494999999999999,0.044872161000967,0.0006103515625,0.06225959449835181
0.15,0.0448683500289917,0.00030517578125,0.06221751095341702
0.1504999999999999,0.0448644235730171,0.00030517578125,0.062124224229937554
0.151,0.044860616326332,0.0,0.06207727548817675
0.1514999999999999,0.0448560789227485,0.00030517578125,0.061732414901954406
