time [s],Lmtc [m],STIM [ ],Fsee [N]
0.0,0.0480148643255233,0.0006103515625,0.23867523570523017
0.0004999999999999,0.048014722764492,0.0006103515625,0.23856412873922858
0.001,0.04801482334733,0.0006103515625,0.23865069144138396
0.0014999999999999,0.0480146147310733,0.0006103515625,0.2384893822375289
0.002,0.0480144843459129,0.0,0.23840126579857557
0.0024999999999999,0.0480149462819099,0.00030517578125,0.23878331301606892
0.003,0.0480146780610084,0.00091552734375,0.23856649003788208
0.0034999999999999,0.0480147711932659,0.0006103515625,0.23864690287137774
0.004,0.0480147525668144,0.0,0.23863390111337127
0.0044999999999999,0.0480146259069442,0.0006103515625,0.2385365167812436
0.005,0.0480149649083614,0.00091552734375,0.2388124987366614
0.0054999999999999,0.0480145364999771,0.00030517578125,0.23846729997054603
0.006,0.048014797270298,0.00030517578125,0.23868614509898212
0.0064999999999999,0.0480144470930099,0.00030517578125,0.23841233194208808
0.007,0.0480137094855308,0.0006103515625,0.2378566403438077
0.0074999999999999,0.0480135269463062,0.00030517578125,0.2377783369845107
0.008,0.0480116344988346,0.0006103515625,0.23637474790138255
0.0084999999999999,0.0480087809264659,0.00030517578125,0.2343516732033608
0.009,0.0480036288499832,0.00030517578125,0.23075153338615167
0.0094999999999999,0.0479966737329959,0.00091552734375,0.226180580992629
0.01,0.0479871779680252,0.00030517578125,0.22030887590561335
0.0104999999999999,0.0479755997657775,0.00030517578125,0.21388335526219135
0.011,0.0479624047875404,0.00030517578125,0.20767801843299075
0.0114999999999999,0.0479476265609264,0.0006103515625,0.20214393348884432
0.012,0.0479311794042587,0.0006103515625,0.19753910339925165
0.0124999999999999,0.0479142405092716,0.00030517578125,0.19448958509140088
0.013,0.0478969886898994,0.00030517578125,0.1923948316611353
0.0134999999999999,0.0478789024055004,0.0,0.19044559481470216
0.014,0.0478605516254901,0.0,0.18879696135663382
0.0144999999999999,0.0478420667350292,0.0,0.1872847194481725
0.015,0.0478243008255958,0.001220703125,0.18622929603204402
0.0154999999999999,0.0478060506284236,0.0006103515625,0.1847860563653609
0.016,0.04778803139925,0.00030517578125,0.18353736732625864
0.0164999999999999,0.047770407050848,0.0006103515625,0.18243200488580533
0.017,0.0477528944611549,0.0,0.18126498308037978
0.0174999999999999,0.0477352738380432,0.0006103515625,0.17999044559993188
0.018,0.0477176345884799,0.00030517578125,0.17871695608213514
0.0184999999999999,0.0477001368999481,0.001220703125,0.17751673666539536
0.019,0.0476830527186393,0.00030517578125,0.1765010843839909
0.0194999999999999,0.0476652830839157,0.00030517578125,0.17502285375975504
0.02,0.0476480573415756,0.00030517578125,0.17394556968527067
0.0204999999999999,0.0476307608187198,0.00091552734375,0.1727468404460957
0.021,0.0476130805909633,0.0,0.17136830814769932
0.0214999999999999,0.0475956611335277,0.0,0.17019723768678113
0.022,0.0475783720612525,0.0006103515625,0.16906262682590925
0.0224999999999999,0.0475609973073005,0.0006103515625,0.16785249538780123
0.023,0.0475433841347694,0.0006103515625,0.16653114289934093
0.0234999999999999,0.0475257113575935,0.00030517578125,0.1652352118000786
0.024,0.0475087687373161,0.0006103515625,0.16435005952798581
0.0244999999999999,0.0474907532334327,0.00030517578125,0.16277697036363453
0.025,0.0474736094474792,0.0006103515625,0.1618363045493663
0.0254999999999999,0.0474561192095279,0.00030517578125,0.16059092614195838
0.026,0.047438770532608,0.00030517578125,0.15945049065638794
0.0264999999999999,0.0474212057888507,0.0006103515625,0.15819346530107542
0.027,0.0474033840000629,0.0006103515625,0.15685230121778707
0.0274999999999999,0.0473863407969474,0.0006103515625,0.15596704013660845
0.028,0.0473688021302223,-0.00030517578125,0.15469547739002235
0.0284999999999999,0.0473509989678859,0.0006103515625,0.15334853371291104
0.029,0.0473340861499309,0.00030517578125,0.15252796209935496
0.0294999999999999,0.0473163649439811,0.001220703125,0.1511471521030165
0.03,0.0472993031144142,0.0006103515625,0.1502054231860986
0.0304999999999999,0.0472815819084644,0.00030517578125,0.1488491537240316
0.031,0.047264140099287,0.00091552734375,0.147733723630365
0.0314999999999999,0.0472471639513969,0.00091552734375,0.14683583961115404
0.032,0.0472290143370628,0.00030517578125,0.1452600113041224
0.0324999999999999,0.047211792320013,0.0006103515625,0.14433603963952135
0.033,0.0471945330500602,0.00030517578125,0.14329192835548057
0.0334999999999999,0.0471770241856575,0.00030517578125,0.14209363243350825
0.034,0.0471597723662853,0.00030517578125,0.14105855564416453
0.0344999999999999,0.0471422038972377,0.0006103515625,0.13983609855389545
0.035,0.0471249483525753,0.0006103515625,0.13881779951442605
0.0354999999999999,0.0471072122454643,0.00030517578125,0.13753364732993686
0.036,0.0470897555351257,0.00030517578125,0.13646493281758812
0.0364999999999999,0.0470726005733013,0.0,0.13551949255583676
0.037,0.0470551624894142,0.0006103515625,0.13437284101797123
0.0374999999999999,0.0470376908779144,0.00030517578125,0.13324346125896774
0.038,0.0470199771225452,0.0006103515625,0.1320195477785717
0.0384999999999999,0.0470028296113014,0.0006103515625,0.13112073056547452
0.039,0.0469852350652217,0.00030517578125,0.12993109590095644
0.0394999999999999,0.0469677858054637,0.0006103515625,0.1288583745263452
0.04,0.0469505712389946,0.00091552734375,0.12789579960641925
0.0404999999999999,0.0469329170882701,0.00030517578125,0.12668673402774955
0.041,0.0469155013561248,-0.00030517578125,0.1256519113154107
0.0414999999999999,0.0468983352184295,0.00030517578125,0.12472362678925661
0.042,0.0468805134296417,0.00030517578125,0.12343826714488579
0.0424999999999999,0.0468634255230426,0.0006103515625,0.12258810953723621
0.043,0.046845968812704,0.00030517578125,0.12148434993079851
0.0434999999999999,0.0468285754323005,0.00030517578125,0.12043712444878947
0.044,0.0468112751841545,0.0,0.11943737149842688
0.0444999999999999,0.0467938147485256,0.00030517578125,0.11835270072614754
0.045,0.0467763878405094,0.0006103515625,0.11730772805748456
0.0454999999999999,0.0467587299644947,0.0006103515625,0.11616414482718175
0.046,0.0467415563762187,0.0,0.11528847792758853
0.0464999999999999,0.0467240177094936,0.0006103515625,0.11419326803276261
0.047,0.0467063523828983,0.00030517578125,0.11307346300472654
0.0474999999999999,0.0466892383992672,0.0,0.1122397392656922
0.048,0.0466718114912509,0.0006103515625,0.11119696062268236
0.0484999999999999,0.0466541461646556,0.00091552734375,0.11006671193278676
0.049,0.0466367527842521,0.00030517578125,0.10910927296151175
0.0494999999999999,0.0466191470623016,0.0006103515625,0.10804125298889465
0.05,0.0466017462313175,0.0006103515625,0.1070928972356157
0.0504999999999999,0.0465840473771095,0.0,0.10599782861740259
0.051,0.0465665683150291,0.00030517578125,0.10503915035529372
0.0514999999999999,0.0465496405959129,0.0006103515625,0.10430944202822408
0.052,0.0465321317315101,0.0006103515625,0.10323285444794185
0.0524999999999999,0.0465149879455566,0.0006103515625,0.10235837803868883
0.053,0.0464974828064441,0.00030517578125,0.10129518251896652
0.0534999999999999,0.0464798808097839,0.0006103515625,0.10023062332611317
0.054,0.0464624315500259,0.00030517578125,0.09927139425282352
0.0544999999999999,0.0464449226856231,0.00030517578125,0.09828505785355342
0.055,0.0464277155697345,0.0006103515625,0.09744050894928986
0.0554999999999999,0.0464099831879138,0.0006103515625,0.09633334969849272
0.056,0.0463930107653141,0.00030517578125,0.09560774102371371
0.0564999999999999,0.0463758967816829,0.00030517578125,0.09475152382794999
0.057,0.0463579259812831,0.0006103515625,0.09350796098859601
0.0574999999999999,0.0463408567011356,0.0006103515625,0.09275198525804333
0.058,0.0463234409689903,0.00091552734375,0.09179092313404028
0.0584999999999999,0.0463058277964592,0.0006103515625,0.09076312842051652
0.059,0.0462884604930877,0.0006103515625,0.08987564586787787
0.0595,0.0462710224092006,0.0006103515625,0.08894911725766519
0.06,0.0462535545229911,0.0006103515625,0.08801527936834878
0.0605,0.0462362691760063,0.00030517578125,0.08716518674872056
0.061,0.0462188087403774,0.00030517578125,0.08622515835958505
0.0615,0.0462016761302948,0.00030517578125,0.0854370041419358
0.062,0.0461836084723472,0.00030517578125,0.08423376235837152
0.0625,0.0461665280163288,0.0006103515625,0.08353141733022877
0.0629999999999999,0.0461488775908947,0.0006103515625,0.08253693746643821
0.0635,0.0461315102875232,0.00030517578125,0.08169049448738253
0.0639999999999999,0.0461143068969249,0.00091552734375,0.08089861433534144
0.0645,0.0460966899991035,0.0006103515625,0.07991555287187004
0.0649999999999999,0.0460795424878597,0.0006103515625,0.07915507942317654
0.0655,0.0460621602833271,0.0006103515625,0.07826888377434264
0.0659999999999999,0.0460448116064071,0.0006103515625,0.07740455521564142
0.0665,0.0460274182260036,0.0006103515625,0.07652841900303337
0.0669999999999999,0.0460095703601837,0.0006103515625,0.07548236364110229
0.0675,0.0459925234317779,0.0006103515625,0.0748052403287486
0.0679999999999999,0.0459750071167945,0.00030517578125,0.07389463586587428
0.0685,0.0459571555256843,0.00030517578125,0.0728769078282047
0.0689999999999999,0.0459398888051509,0.00091552734375,0.0721361816644935
0.0695,0.0459227040410041,0.00091552734375,0.07139660932386964
0.0699999999999999,0.0459052138030529,0.00030517578125,0.07051428411157945
0.0705,0.0458875335752964,0.0,0.06957763848721103
0.0709999999999999,0.0458702147006988,0.00030517578125,0.06880969860958025
0.0715,0.0458531379699707,0.001220703125,0.06811825089044102
0.0719999999999999,0.0458353050053119,0.00091552734375,0.06710998782246332
0.0725,0.0458179824054241,0.0006103515625,0.06634880870414148
0.0729999999999999,0.0458002462983131,0.0006103515625,0.06542175954551545
0.0735,0.0457829535007476,0.00030517578125,0.06469016666922646
0.0739999999999999,0.0457657054066658,0.0006103515625,0.06395477936465534
0.0745,0.0457485057413578,0.00091552734375,0.06322083007931807
0.0749999999999999,0.0457311123609542,0.0006103515625,0.06240273736139821
0.0755,0.0457132272422313,0.00030517578125,0.061418240717199826
0.0759999999999999,0.0456960499286651,0.0006103515625,0.06074233720897518
0.0765,0.0456787459552288,0.00030517578125,0.059993876430751
0.0769999999999999,0.0456611402332782,0.0006103515625,0.059132062244911444
0.0775,0.0456439554691314,0.00030517578125,0.058443320646394355
0.0779999999999999,0.0456263571977615,0.00030517578125,0.05758956964883776
0.0785,0.0456090681254863,0.00030517578125,0.05686872161577137
0.0789999999999999,0.0455914139747619,0.00091552734375,0.05601219344331437
0.0795,0.0455740615725517,0.001220703125,0.0552856719424231
0.0799999999999999,0.0455566756427288,0.00030517578125,0.05454171522444803
0.0805,0.0455390885472297,0.00030517578125,0.05372927404524523
0.0809999999999999,0.0455217659473419,0.00091552734375,0.053024093970271594
0.0815,0.045504592359066,0.00030517578125,0.05236253123178672
0.0819999999999999,0.0454866178333759,0.00091552734375,0.05141586394557365
0.0825,0.0454696379601955,0.00091552734375,0.05085259620510549
0.0829999999999999,0.0454520098865032,0.0,0.050035266143497244
0.0835,0.0454347021877765,0.0006103515625,0.04934725182129569
0.0839999999999999,0.0454171672463417,0.0006103515625,0.048578664969145535
0.0845,0.0453995466232299,0.0006103515625,0.047795239213838624
0.0849999999999999,0.0453824624419212,0.0006103515625,0.047202330888405454
0.0855,0.0453647151589393,0.00030517578125,0.04637277150605304
0.0859999999999999,0.04534712433815,0.00030517578125,0.045623630954120586
0.0865,0.04533002525568,0.0006103515625,0.04504050206767945
0.0869999999999999,0.0453125722706317,0.00030517578125,0.04432115178919246
0.0875,0.0452952273190021,0.00030517578125,0.043642773793306965
0.0879999999999999,0.0452779866755008,0.00030517578125,0.04299614792843652
0.0885,0.0452602989971637,0.0,0.04220603123214957
0.0889999999999999,0.0452430360019207,0.00030517578125,0.04157184638944877
0.0895,0.0452255196869373,0.00091552734375,0.0408538152799257
0.0899999999999999,0.0452079698443412,0.00030517578125,0.04013765655973441
0.0905,0.0451905615627765,0.00091552734375,0.03947508493029098
0.0909999999999999,0.0451732464134693,0.0,0.03884109707795517
0.0915,0.045155793428421,0.00091552734375,0.038163684951091105
0.0919999999999999,0.0451380647718906,0.00030517578125,0.03741232520205571
0.0925,0.0451209880411624,0.0006103515625,0.03687201343543595
0.0929999999999999,0.0451031140983104,0.001220703125,0.03608225238794013
0.0935,0.0450857877731323,0.0,0.03547936569671408
0.0939999999999999,0.0450684875249862,0.0,0.03487762160068179
0.0945,0.0450508594512939,0.0006103515625,0.0341791362827003
0.0949999999999999,0.0450335517525672,0.0006103515625,0.033585188390764235
0.0955,0.0450155884027481,0.00030517578125,0.03280621319854538
0.0959999999999999,0.0449984222650527,0.0,0.03227690978529723
0.0965,0.0449812039732933,0.0006103515625,0.03171734306759346
0.0969999999999999,0.0449636243283748,0.001220703125,0.031051841753022533
0.0975,0.0449465960264205,0.00091552734375,0.030545288937434377
0.0979999999999999,0.044929064810276,0.00030517578125,0.029889301943919463
0.0985,0.0449116192758083,0.0006103515625,0.029268455925264267
0.0989999999999999,0.0448942445218563,-0.00030517578125,0.02867259508348849
0.0995,0.0448768474161624,0.0006103515625,0.028073956825457956
0.0999999999999999,0.04485934227705,0.00091552734375,0.027452036665737617
0.1005,0.044842030853033,0.00030517578125,0.026887366354370248
0.1009999999999999,0.0448248349130153,0.0006103515625,0.026350717448091202
0.1015,0.0448076017200946,0.00030517578125,0.02580167132715203
0.1019999999999999,0.0447894297540187,-0.00030517578125,0.025022763263993445
0.1025,0.0447724275290966,0.001220703125,0.02456438608819573
0.1029999999999999,0.0447550863027572,0.0006103515625,0.024009049572717787
0.1035,0.0447374954819679,0.00091552734375,0.02339692074104155
0.1039999999999999,0.0447202436625957,0.0006103515625,0.022876405426518122
0.1045,0.0447026118636131,0.00030517578125,0.022265737757423264
0.1049999999999999,0.0446854047477245,0.0006103515625,0.021765486527953695
0.1055,0.0446677692234516,0.0006103515625,0.021164270231345147
0.1059999999999999,0.0446507036685943,0.001220703125,0.02070329990897627
0.1065,0.0446330569684505,0.00091552734375,0.02010630449187193
0.1069999999999999,0.044615302234888,0.0006103515625,0.019500062648563663
0.1075,0.0445983298122882,0.0006103515625,0.01907711395967803
0.1079999999999999,0.0445807166397571,0.00091552734375,0.018506035949425126
0.1085,0.0445632301270961,0.0,0.017973310722260633
0.1089999999999999,0.0445458889007568,0.0006103515625,0.017477019960418297
0.1095,0.0445284806191921,0.00091552734375,0.01696843549175841
0.1099999999999999,0.0445113591849803,0.00030517578125,0.01652171239387644
0.1105,0.0444936975836753,0.0006103515625,0.015964205230564
0.1109999999999999,0.0444763526320457,0.0,0.015481687992705925
0.1115,0.0444590523838996,0.0006103515625,0.01501060587665952
0.1119999999999999,0.0444414541125297,0.00030517578125,0.014485111066566728
0.1125,0.0444241240620613,0.0006103515625,0.01402012063489403
0.1129999999999999,0.0444065704941749,0.0006103515625,0.013516796699235908
0.1135,0.04438928514719,0.00091552734375,0.013070621604495812
0.1139999999999999,0.0443716272711753,0.0006103515625,0.012560067093132178
0.1145,0.044354360550642,0.00030517578125,0.012128536532931295
0.1149999999999999,0.0443370193243026,0.00030517578125,0.011685374560271796
0.1155,0.0443191900849342,0.00030517578125,0.011164094703924439
0.1159999999999999,0.0443020686507225,-0.00030517578125,0.010773924744016946
0.1165,0.044284775853157,0.00091552734375,0.010354286316543754
0.1169999999999999,0.044267076998949,0.0006103515625,0.009873454445228155
0.1175,0.0442495122551918,0.00091552734375,0.009425105263276163
0.118,0.0442323051393032,0.00091552734375,0.009039081687649157
0.1185,0.0442146584391593,0.0,0.008589287802705386
0.119,0.0441971570253372,0.00030517578125,0.00817073807833827
0.1195,0.0441799201071262,0.0,0.007796341733499892
0.12,0.0441625751554966,0.0006103515625,0.007409422794671055
0.1205,0.0441448837518692,0.00030517578125,0.006980956058830137
0.121,0.0441279672086238,0.00091552734375,0.006664653375255287
0.1215,0.0441104806959629,0.0,0.0062741824998504446
0.122,0.0440926812589168,0.00030517578125,0.005853691614735074
0.1225,0.0440756976604461,0.0006103515625,0.005543844551547115
0.123,0.0440580323338508,0.00030517578125,0.005155521564789301
0.1235,0.0440405830740928,0.0006103515625,0.004802939521796456
0.124,0.0440232455730438,0.0006103515625,0.004470657276785527
0.1245,0.0440057665109634,0.0006103515625,0.0041305877984773014
0.125,0.0439885035157203,0.001220703125,0.0038214120858220757
0.1254999999999999,0.043970875442028,0.0006103515625,0.0034839320018533147
0.126,0.0439539290964603,0.0006103515625,0.0032209553420371123
0.1264999999999999,0.0439361333847045,0.00030517578125,0.0028872607973019753
0.127,0.0439186915755271,0.0,0.002598114099246379
0.1274999999999999,0.0439015440642833,0.0006103515625,0.0023429078163560175
0.128,0.0438837818801403,0.00030517578125,0.002050000866310711
0.1284999999999999,0.0438664592802524,0.00030517578125,0.0018035022909522606
0.129,0.0438490249216556,0.0006103515625,0.0015609598560938438
0.1294999999999999,0.0438317582011222,0.0006103515625,0.0013417168910609973
0.13,0.0438142046332359,0.0006103515625,0.001118897917534449
0.1304999999999999,0.0437965169548988,0.0006103515625,0.0009059079170047953
0.131,0.0437793172895908,0.0006103515625,0.0007334725048918676
0.1314999999999999,0.0437619090080261,0.0006103515625,0.0005672824434616421
0.132,0.0437442325055599,0.0,0.0004101953251184535
0.1324999999999999,0.0437267124652862,0.0006103515625,0.00028012500380217347
0.133,0.0437096655368804,0.00030517578125,0.00018284655914047875
0.1334999999999999,0.0436922162771225,0.00030517578125,9.754579252790477e-05
0.134,0.0436746813356876,0.0006103515625,3.6709928554356815e-05
0.1344999999999999,0.0436573438346385,0.00030517578125,5.274377139986187e-06
0.135,0.0436400547623634,0.0006103515625,0.0
0.1354999999999999,0.0436225458979606,0.0,0.0
0.136,0.0436052270233631,0.0006103515625,0.0
0.1364999999999999,0.0435877479612827,0.0,0.0
0.137,0.0435701757669448,0.0,0.0
0.1374999999999999,0.0435528680682182,0.00030517578125,0.0
0.138,0.043535079807043,0.00030517578125,0.0
0.1384999999999999,0.0435176268219947,0.00030517578125,0.0
0.139,0.0435005314648151,0.00030517578125,0.0
0.1394999999999999,0.043482843786478,0.0,0.0
0.14,0.0434657223522663,0.00091552734375,0.0
0.1404999999999999,0.0434477515518665,0.00030517578125,0.0
0.141,0.0434303469955921,0.0006103515625,0.0
0.1414999999999999,0.0434130132198333,0.00030517578125,0.0
0.142,0.04339549690485,0.0006103515625,0.0
0.1424999999999999,0.0433784946799278,0.00030517578125,0.0
0.143,0.043360810726881,0.0006103515625,0.0
0.1434999999999999,0.043343897908926,0.00030517578125,0.0
0.144,0.0433261133730411,0.00030517578125,0.0
0.1444999999999999,0.0433086119592189,0.00030517578125,0.0
0.145,0.0432914048433303,0.00030517578125,0.0
0.1454999999999999,0.0432737246155738,0.00030517578125,0.0
0.146,0.0432566851377487,0.0,0.0
0.1464999999999999,0.0432390943169593,0.0,0.0
0.147,0.0432217381894588,0.0006103515625,0.0
0.1474999999999999,0.0432045310735702,0.00030517578125,0.0
0.148,0.0431872121989727,0.0006103515625,0.0
0.1484999999999999,0.0431695431470871,0.00030517578125,0.0
0.149,0.0431519895792007,0.00030517578125,0.0
0.1494999999999999,0.0431346707046031,0.00091552734375,0.0
0.15,0.043117381632328,0.00091552734375,0.0
0.1504999999999999,0.0430997125804424,0.0006103515625,0.0
0.151,0.0430824942886829,0.0006103515625,0.0
0.1514999999999999,0.0430648438632488,0.00091552734375,0.0
0.152,0.0430476069450378,0.00030517578125,0.0
0.1524999999999999,0.0430305562913417,0.00091552734375,0.0
0.153,0.0430126637220382,0.00091552734375,0.0
0.1534999999999999,0.0429951921105384,0.0,0.0
0.154,0.0429777763783931,0.0006103515625,0.0
0.1544999999999999,0.0429606400430202,0.00091552734375,0.0
