time [s],Lmtc [m],STIM [ ],Fsee [N]
0.0,0.0455018579959869,0.00030517578125,0.10902414374136456
0.0004999999999999,0.0455018728971481,0.00030517578125,0.10903260746771923
0.001,0.0455020926892757,0.00030517578125,0.10917220990751472
0.0014999999999999,0.0455018430948257,-0.00030517578125,0.10900943045846452
0.002,0.0455019548535347,0.00030517578125,0.1090801588083918
0.0024999999999999,0.045502133667469,0.0,0.1091929523641951
0.003,0.0455022118985652,0.00030517578125,0.10923988951658169
0.0034999999999999,0.0455019325017929,0.00030517578125,0.10905712471119652
0.004,0.0455020442605018,0.0006103515625,0.1091272768130502
0.0044999999999999,0.0455020107328891,0.0,0.10910349106793561
0.005,0.0455019883811473,0.0,0.1090871712098221
0.0054999999999999,0.0455018393695354,0.0006103515625,0.10898991618401235
0.006,0.0455020293593406,0.0006103515625,0.10911098776955078
0.0064999999999999,0.0455020293593406,0.0,0.10910887985936367
0.007,0.0455014705657959,0.00030517578125,0.1087499732722061
0.0074999999999999,0.0455004870891571,0.0006103515625,0.10813192679790325
0.008,0.0454977042973041,0.0006103515625,0.10639696578452393
0.0084999999999999,0.0454938225448131,0.00030517578125,0.10403821488332234
0.009,0.045488242059946,0.00030517578125,0.10072738261353463
0.0094999999999999,0.0454810336232185,0.0006103515625,0.0965875252489643
0.01,0.0454721264541149,0.00030517578125,0.09166417461170764
0.0104999999999999,0.0454618744552135,0.0,0.08626594715990088
0.011,0.0454505942761898,0.00030517578125,0.08065545922975369
0.0114999999999999,0.0454384498298168,0.0006103515625,0.07499244368442942
0.012,0.0454257577657699,0.0,0.06949586277062804
0.0124999999999999,0.045413315296173,0.0006103515625,0.06458417282809946
0.013,0.045400220900774,0.00030517578125,0.05980215527433158
0.0134999999999999,0.0453868322074413,-0.00030517578125,0.05534557390608186
0.014,0.0453736335039138,0.00030517578125,0.05142212731264869
0.0144999999999999,0.0453603640198707,0.0006103515625,0.04788202617825593
0.015,0.0453473553061485,0.0,0.04483197407102326
0.0154999999999999,0.0453343316912651,0.0,0.04211420223364782
0.016,0.0453211069107055,0.0006103515625,0.03962755846554893
0.0164999999999999,0.0453084111213684,0.0,0.037614091217863806
0.017,0.0452951379120349,0.00030517578125,0.03561719183245576
0.0174999999999999,0.0452826730906963,0.0,0.03411588454553962
0.018,0.045269638299942,0.00030517578125,0.03257019444904083
0.0184999999999999,0.0452568680047988,0.00030517578125,0.0312637377312597
0.019,0.0452443324029445,0.0006103515625,0.030147537072433138
0.0194999999999999,0.0452315583825111,-0.00030517578125,0.029042463273805528
0.02,0.0452184863388538,0.00030517578125,0.027929392682583716
0.0204999999999999,0.0452059805393219,0.00030517578125,0.02707033768618251
0.021,0.0451931804418563,0.00030517578125,0.02616707034813898
0.0214999999999999,0.045180469751358,0.0,0.025340387340333108
0.022,0.0451673977077007,0.0006103515625,0.024448225043335024
0.0224999999999999,0.0451547428965568,0.00030517578125,0.02372170968528121
0.023,0.0451420955359935,0.0006103515625,0.023019835481769817
0.0234999999999999,0.0451294928789138,0.0006103515625,0.02234964077648097
0.024,0.0451167449355125,0.00030517578125,0.021655431916013747
0.0244999999999999,0.0451041124761104,0.00030517578125,0.021011436166264955
0.025,0.0450915358960628,0.00030517578125,0.020394910486792008
0.0254999999999999,0.0450787395238876,0.0,0.01973110901999067
0.026,0.0450663156807422,0.00091552734375,0.01917974492477402
0.0264999999999999,0.0450535453855991,-0.0006103515625,0.018543539926239062
0.027,0.0450409166514873,0.00030517578125,0.01795770492406893
0.0274999999999999,0.0450283139944076,0.00030517578125,0.017387338566478932
0.028,0.0450154542922973,0.0006103515625,0.01676322174310073
0.0284999999999999,0.0450029708445072,0.00091552734375,0.016243957759053525
0.029,0.044990237802267,0.0,0.015669417134214162
0.0294999999999999,0.0449775196611881,0.0006103515625,0.015109673017377328
0.03,0.0449648611247539,0.00030517578125,0.014573572330542878
0.0304999999999999,0.0449520722031593,0.00091552734375,0.014016916073550581
0.031,0.0449393615126609,0.0,0.013489026151943721
0.0314999999999999,0.0449267737567424,0.00030517578125,0.012996208149569876
0.032,0.0449139103293418,0.0,0.012451395644758672
0.0324999999999999,0.0449012517929077,0.0006103515625,0.011961454576424793
0.033,0.0448887310922145,-0.0006103515625,0.011506148347361857
0.0334999999999999,0.0448759496212005,0.0006103515625,0.01100329294399295
0.034,0.0448636263608932,0.0006103515625,0.010599368703697484
0.0344999999999999,0.044850580394268,0.00030517578125,0.01005898776693063
0.035,0.044838011264801,0.00030517578125,0.009624085553172927
0.0354999999999999,0.0448251962661743,0.0006103515625,0.009150441966230854
0.036,0.0448125936090946,0.0,0.0087254427285774
0.0364999999999999,0.0447997599840164,0.00030517578125,0.00826735054769533
0.037,0.0447871461510658,0.00030517578125,0.007857563009056835
0.0374999999999999,0.0447745956480503,0.00091552734375,0.007464881926403296
0.038,0.0447618030011653,0.0006103515625,0.00703968035977874
0.0384999999999999,0.0447489358484745,0.00030517578125,0.0066140169730606845
0.039,0.0447363853454589,0.0006103515625,0.0062478562605493655
0.0394999999999999,0.044723454862833,0.00030517578125,0.00583283056278725
0.04,0.0447109267115592,0.00030517578125,0.005487597060877024
0.0404999999999999,0.0446984507143497,0.00030517578125,0.005155576081502378
0.041,0.0446856804192066,0.00091552734375,0.004790572304228543
0.0414999999999999,0.0446729324758052,0.0006103515625,0.004439516829514821
0.042,0.0446603372693061,0.0006103515625,0.0041178766352859605
0.0424999999999999,0.0446477606892585,-0.00030517578125,0.003807002285688038
0.043,0.0446347333490848,0.00030517578125,0.003454038492817542
0.0434999999999999,0.0446224175393581,0.00030517578125,0.0031931848066045526
0.044,0.0446096397936344,0.00030517578125,0.002890072287673955
0.0444999999999999,0.0445967130362987,0.0006103515625,0.002584971232993846
0.045,0.0445841029286384,0.0,0.002323882460654771
0.0454999999999999,0.0445715524256229,0.0,0.0020785301334172897
0.046,0.0445589758455753,0.00091552734375,0.001841276104082571
0.0464999999999999,0.0445459447801113,0.0,0.0015802457937380543
0.047,0.044533621519804,0.0,0.0013872785483422698
0.0474999999999999,0.0445206724107265,0.0006103515625,0.0011618371813988176
0.048,0.0445083528757095,0.0,0.0009919238489948588
0.0484999999999999,0.0444952622056007,0.0,0.000789907163728896
0.049,0.044482409954071,0.00030517578125,0.0006202555428968113
0.0494999999999999,0.0444697849452495,0.00030517578125,0.00047846171580868615
0.05,0.0444572009146213,0.0,0.0003543658172408514
0.0504999999999999,0.0444444492459297,0.00030517578125,0.00024185369048325831
0.051,0.0444317273795604,0.0,0.00014992901936294612
0.0514999999999999,0.0444189645349979,0.0006103515625,7.796785189397887e-05
0.052,0.044406309723854,-0.00030517578125,2.9685009172558337e-05
0.0524999999999999,0.0443935729563236,-0.00030517578125,3.6465802573051434e-06
0.053,0.0443808548152446,0.0,0.0
0.0534999999999999,0.0443681143224239,0.0006103515625,0.0
0.054,0.0443554744124412,0.00030517578125,0.0
0.0544999999999999,0.0443425215780735,0.0006103515625,0.0
0.055,0.0443300046026706,0.0,0.0
0.0554999999999999,0.0443174019455909,0.0,0.0
0.056,0.0443046987056732,0.00030517578125,0.0
0.0564999999999999,0.0442919395864009,0.00030517578125,0.0
0.057,0.0442793555557727,-0.00030517578125,0.0
0.0574999999999999,0.044266864657402,0.00030517578125,0.0
0.058,0.0442539155483245,0.00030517578125,0.0
0.0584999999999999,0.044241227209568,0.00030517578125,0.0
0.059,0.0442286618053913,0.0,0.0
0.0595,0.044215902686119,0.0,0.0
0.06,0.044203195720911,0.0006103515625,0.0
0.0605,0.0441905073821544,0.00030517578125,0.0
0.061,0.0441778264939785,0.0,0.0
0.0615,0.0441651716828346,-0.00030517578125,0.0
0.062,0.0441524647176265,0.00030517578125,0.0
0.0625,0.0441397875547409,0.0,0.0
0.0629999999999999,0.0441271513700485,0.0006103515625,0.0
0.0635,0.044114626944065,0.00091552734375,0.0
0.0639999999999999,0.0441016405820846,0.00030517578125,0.0
0.0645,0.0440890863537788,-0.0006103515625,0.0
0.0649999999999999,0.0440764129161834,0.0,0.0
0.0655,0.0440635830163955,-0.0006103515625,0.0
0.0659999999999999,0.0440506748855114,0.0,0.0
0.0665,0.0440381802618503,0.0,0.0
0.0669999999999999,0.0440255068242549,0.00030517578125,0.0
0.0675,0.0440127812325954,0.0,0.0
0.0679999999999999,0.0440003089606761,0.0,0.0
0.0685,0.0439875423908233,0.0006103515625,0.0
0.0689999999999999,0.0439749062061309,0.0006103515625,0.0
0.0695,0.043962113559246,0.0,0.0
0.0699999999999999,0.0439494885504245,0.00030517578125,0.0
0.0705,0.0439364537596702,0.00030517578125,0.0
0.0709999999999999,0.0439237542450428,0.0,0.0
0.0715,0.0439113266766071,0.0,0.0
0.0719999999999999,0.0438985601067543,0.0,0.0
0.0725,0.043885949999094,0.00030517578125,0.0
0.0729999999999999,0.0438730753958225,0.0,0.0
0.0735,0.0438604578375816,0.00030517578125,0.0
0.0739999999999999,0.0438477993011474,0.00030517578125,0.0
0.0745,0.0438351891934871,0.0006103515625,0.0
0.0749999999999999,0.0438224859535694,0.0,0.0
0.0755,0.0438098534941673,0.00030517578125,0.0
0.0759999999999999,0.0437971726059913,-0.00030517578125,0.0
0.0765,0.0437844209372997,0.00030517578125,0.0
0.0769999999999999,0.0437715761363506,0.0006103515625,0.0
0.0775,0.0437587834894657,0.0006103515625,0.0
0.0779999999999999,0.0437461696565151,-0.00030517578125,0.0
0.0785,0.043733287602663,-0.0006103515625,0.0
0.0789999999999999,0.043720606714487,0.00030517578125,0.0
0.0795,0.0437079705297946,-0.00030517578125,0.0
0.0799999999999999,0.0436955578625202,0.00030517578125,0.0
0.0805,0.0436825230717659,-0.00030517578125,0.0
0.0809999999999999,0.0436698161065578,0.0006103515625,0.0
0.0815,0.043656937777996,0.00030517578125,0.0
0.0819999999999999,0.043644580990076,0.0,0.0
0.0825,0.0436318777501583,0.0006103515625,0.0
0.0829999999999999,0.0436190068721771,0.0006103515625,0.0
0.0835,0.0436062812805175,0.00030517578125,0.0
0.0839999999999999,0.0435935631394386,0.00030517578125,0.0
0.0845,0.043580874800682,0.0006103515625,0.0
0.0849999999999999,0.0435680747032165,-0.00030517578125,0.0
0.0855,0.0435553677380085,-0.00030517578125,0.0
0.0859999999999999,0.0435428731143474,0.0006103515625,0.0
0.0865,0.043530236929655,0.0006103515625,0.0
0.0869999999999999,0.0435175634920597,0.0,0.0
0.0875,0.043505024164915,-0.0006103515625,0.0
0.0879999999999999,0.0434922948479652,0.00030517578125,0.0
0.0885,0.0434797741472721,0.0006103515625,0.0
0.0889999999999999,0.0434671901166439,0.00030517578125,0.0
0.0895,0.0434542149305343,0.00030517578125,0.0
0.0899999999999999,0.0434416979551315,0.0,0.0
0.0905,0.0434290505945682,0.0006103515625,0.0
0.0909999999999999,0.0434162281453609,0.00091552734375,0.0
0.0915,0.0434035807847976,0.0006103515625,0.0
0.0919999999999999,0.0433908998966217,0.0,0.0
0.0925,0.043378110975027,0.0006103515625,0.0
0.0929999999999999,0.0433654598891735,0.00030517578125,0.0
0.0935,0.0433527268469333,0.0006103515625,0.0
0.0939999999999999,0.0433399602770805,-0.00030517578125,0.0
0.0945,0.0433273315429687,-0.00030517578125,0.0
0.0949999999999999,0.0433145761489868,0.0,0.0
0.0955,0.0433019138872623,0.00091552734375,0.0
0.0959999999999999,0.043289165943861,-0.00030517578125,0.0
0.0965,0.0432765185832977,0.0006103515625,0.0
0.0969999999999999,0.0432640314102172,0.0006103515625,0.0
0.0975,0.0432512164115905,0.0006103515625,0.0
0.0979999999999999,0.0432387851178646,0.00030517578125,0.0
0.0985,0.0432256273925304,0.0006103515625,0.0
0.0989999999999999,0.0432131253182888,0.00030517578125,0.0
0.0995,0.0432004295289516,0.0,0.0
0.0999999999999999,0.0431877970695495,0.00030517578125,0.0
0.1005,0.0431749857962131,0.0,0.0
0.1009999999999999,0.0431625172495842,0.0,0.0
0.1015,0.0431495159864425,0.0,0.0
0.1019999999999999,0.043137103319168,0.00030517578125,0.0
0.1025,0.0431242138147354,0.0006103515625,0.0
0.1029999999999999,0.0431115925312042,-0.00030517578125,0.0
0.1035,0.0430991128087043,0.0,0.0
0.1039999999999999,0.0430863387882709,0.0,0.0
0.1045,0.0430735573172569,0.00030517578125,0.0
0.1049999999999999,0.0430608391761779,0.00030517578125,0.0
0.1055,0.0430481806397438,0.001220703125,0.0
0.1059999999999999,0.0430356971919536,0.0,0.0
0.1065,0.043022945523262,0.00030517578125,0.0
0.1069999999999999,0.0430099479854106,0.00030517578125,0.0
0.1075,0.0429972782731056,0.0,0.0
0.1079999999999999,0.0429843850433826,0.0,0.0
0.1085,0.0429720766842365,0.00030517578125,0.0
0.1089999999999999,0.0429594069719314,0.0,0.0
0.1095,0.0429466441273689,0.00091552734375,0.0
0.1099999999999999,0.0429339595139026,0.00030517578125,0.0
0.1105,0.0429211072623729,0.00030517578125,0.0
0.1109999999999999,0.0429083965718746,0.00030517578125,0.0
0.1115,0.0428956411778926,-0.00030517578125,0.0
0.1119999999999999,0.0428830161690712,0.00030517578125,0.0
0.1125,0.0428701415657997,-0.00030517578125,0.0
0.1129999999999999,0.0428577400743961,0.00091552734375,0.0
0.1135,0.0428449437022209,0.0006103515625,0.0
0.1139999999999999,0.0428320802748203,0.00091552734375,0.0
0.1145,0.0428192652761936,-0.00030517578125,0.0
0.1149999999999999,0.0428066104650497,0.00030517578125,0.0
0.1155,0.0427940115332603,0.00030517578125,0.0
0.1159999999999999,0.0427811555564403,0.00030517578125,0.0
0.1165,0.0427684597671031,0.0006103515625,0.0
0.1169999999999999,0.0427556373178958,-0.00030517578125,0.0
0.1175,0.0427432656288147,0.0,0.0
0.118,0.0427303910255432,0.00030517578125,0.0
0.1185,0.0427176989614963,-0.00030517578125,0.0
0.119,0.0427049472928047,0.0,0.0
0.1195,0.042692132294178,0.0006103515625,0.0
0.12,0.0426798090338707,0.0,0.0
0.1205,0.0426669903099536,0.0,0.0
0.121,0.0426543988287448,0.0006103515625,0.0
0.1215,0.0426417961716651,0.00030517578125,0.0
0.122,0.0426289290189743,0.0006103515625,0.0
0.1225,0.0426162779331207,0.0,0.0
0.123,0.0426038727164268,0.0006103515625,0.0
0.1235,0.0425909347832202,0.00030517578125,0.0
0.124,0.0425780825316906,0.0006103515625,0.0
0.1245,0.0425658412277698,0.0006103515625,0.0
0.125,0.0425530597567558,0.00030517578125,0.0
0.1254999999999999,0.0425402112305164,0.00030517578125,0.0
0.126,0.0425276271998882,0.0006103515625,0.0
0.1264999999999999,0.0425150878727436,0.0006103515625,0.0
0.127,0.042502287775278,0.00030517578125,0.0
0.1274999999999999,0.04248958081007,0.00030517578125,0.0
0.128,0.0424768775701522,0.0,0.0
0.1284999999999999,0.0424640886485576,0.00030517578125,0.0
0.129,0.0424512773752212,0.00030517578125,0.0
0.1294999999999999,0.0424387939274311,0.0,0.0
0.13,0.0424258820712566,0.00030517578125,0.0
0.1304999999999999,0.0424131266772747,0.00030517578125,0.0
0.131,0.0424005463719368,0.00030517578125,0.0
0.1314999999999999,0.0423877127468586,0.00030517578125,0.0
0.132,0.042375024408102,0.00030517578125,0.0
0.1324999999999999,0.0423621237277984,0.0006103515625,0.0
0.133,0.0423497594892978,0.00091552734375,0.0
0.1334999999999999,0.0423368103802204,0.0006103515625,0.0
0.134,0.0423241034150123,0.0006103515625,0.0
0.1344999999999999,0.0423114486038684,0.00030517578125,0.0
0.135,0.042298998683691,0.00030517578125,0.0
0.1354999999999999,0.0422859564423561,0.0006103515625,0.0
0.136,0.0422735698521137,-0.00030517578125,0.0
0.1364999999999999,0.0422609597444534,0.00030517578125,0.0
0.137,0.0422478169202804,0.0,0.0
0.1374999999999999,0.0422353558242321,-0.00030517578125,0.0
0.138,0.0422224774956703,0.00030517578125,0.0
0.1384999999999999,0.0422100387513637,0.00030517578125,0.0
0.139,0.04219726100564,0.00030517578125,0.0
0.1394999999999999,0.0421846844255924,0.00030517578125,0.0
0.14,0.0421717911958694,0.00091552734375,0.0
0.1404999999999999,0.0421590320765972,-0.00030517578125,0.0
0.141,0.0421464294195175,0.00030517578125,0.0
0.1414999999999999,0.0421337336301803,0.0,0.0
0.142,0.04212087392807,0.0,0.0
0.1424999999999999,0.0421081744134426,0.0006103515625,0.0
0.143,0.0420956537127494,0.00030517578125,0.0
0.1434999999999999,0.0420827865600585,0.00030517578125,0.0
0.144,0.0420701429247856,0.00030517578125,0.0
0.1444999999999999,0.0420570820569992,0.0,0.0
0.145,0.0420444086194038,0.0,0.0
0.1454999999999999,0.0420316196978092,0.0,0.0
0.146,0.0420190393924713,-0.00030517578125,0.0
0.1464999999999999,0.0420065633952617,0.0006103515625,0.0
0.147,0.0419935509562492,0.0,0.0
0.1474999999999999,0.0419810861349105,0.00030517578125,0.0
0.148,0.0419685319066047,0.00091552734375,0.0
0.1484999999999999,0.0419558100402355,0.00030517578125,0.0
0.149,0.0419433265924453,0.00030517578125,0.0
0.1494999999999999,0.0419305004179477,0.0,0.0
0.15,0.041917759925127,-0.0006103515625,0.0
0.1504999999999999,0.0419053360819816,0.0,0.0
0.151,0.0418926142156124,0.00030517578125,0.0
0.1514999999999999,0.0418800972402095,0.00030517578125,0.0
0.152,0.0418671816587448,0.0,0.0
0.1524999999999999,0.0418545193970203,0.00030517578125,0.0
0.153,0.0418419055640697,0.0006103515625,0.0
0.1534999999999999,0.0418293178081512,-0.00030517578125,0.0
0.154,0.0418165475130081,0.00030517578125,0.0
0.1544999999999999,0.0418039485812187,0.00030517578125,0.0
0.155,0.041791133582592,0.0006103515625,0.0
0.1554999999999999,0.0417782887816429,0.0,0.0
0.156,0.0417660549283027,0.0,0.0
0.1564999999999999,0.0417532511055469,0.0006103515625,0.0
0.157,0.0417405739426612,0.0,0.0
0.1574999999999999,0.0417277254164218,0.0,0.0
0.158,0.0417150668799877,0.0,0.0
0.1584999999999999,0.0417023859918117,0.00030517578125,0.0
0.159,0.0416896194219589,0.00030517578125,0.0
0.1594999999999999,0.0416771806776523,0.0,0.0
0.16,0.0416641645133495,0.00091552734375,0.0
0.1604999999999999,0.0416515208780765,0.0,0.0
0.161,0.0416389219462871,0.0006103515625,0.0
0.1614999999999999,0.0416260585188865,0.00030517578125,0.0
0.162,0.0416135415434837,0.0,0.0
0.1624999999999999,0.0416006222367286,0.00030517578125,0.0
0.163,0.0415877737104892,0.00030517578125,0.0
0.1634999999999999,0.0415751934051513,0.0,0.0
0.164,0.0415630117058754,0.0,0.0
0.1644999999999999,0.0415509268641471,0.0,0.0
0.165,0.0415393859148025,0.0006103515625,0.0
0.1654999999999999,0.041528832167387,-0.00030517578125,0.0
0.166,0.0415201187133789,0.00030517578125,0.0
0.1664999999999999,0.0415130406618118,0.0,0.0
0.167,0.0415080375969409,0.0,0.0
0.1674999999999999,0.0415063127875328,0.00091552734375,0.0
0.168,0.0415070764720439,0.00030517578125,0.0
0.1684999999999999,0.041510634124279,0.00030517578125,0.0
0.169,0.0415171980857849,0.0006103515625,0.0
0.1694999999999999,0.0415275879204273,-0.00030517578125,0.0
0.17,0.0415407679975032,0.0,0.0
0.1704999999999999,0.0415570810437202,-0.00030517578125,0.0
0.171,0.0415765233337879,0.00030517578125,0.0
0.1714999999999999,0.0415987148880958,0.0,0.0
0.172,0.0416241213679313,0.00030517578125,0.0
0.1725,0.0416526086628437,0.00030517578125,0.0
0.173,0.0416835024952888,0.00030517578125,0.0
0.1735,0.0417173132300376,0.0006103515625,0.0
0.174,0.0417542941868305,0.0,0.0
0.1745,0.0417933762073516,0.0,0.0
0.175,0.0418351702392101,0.0006103515625,0.0
0.1755,0.0418795719742774,0.0,0.0
0.176,0.0419264696538448,0.0006103515625,0.0
0.1765,0.0419757515192031,0.00030517578125,0.0
0.177,0.0420272909104824,0.0006103515625,0.0
0.1775,0.0420810915529727,0.0,0.0
0.178,0.0421371795237064,0.0,0.0
0.1785,0.0421951115131378,0.0,0.0
0.179,0.0422548204660415,0.00030517578125,0.0
0.1795,0.0423158891499042,0.0006103515625,0.0
0.18,0.0423744767904281,0.00030517578125,0.0
0.1805,0.0424310378730297,0.0006103515625,0.0
0.181,0.042487371712923,-0.00030517578125,0.0
0.1815,0.0425457395613193,0.0006103515625,0.001794157423382252
0.182,0.042608119547367,-0.00030517578125,0.01186559198050559
0.1825,0.0426755473017692,0.0006103515625,0.03176179830840184
0.183,0.0427472181618213,-0.00030517578125,0.06228126263046298
0.1835,0.0428230874240398,-0.00030517578125,0.10462698918925978
0.184,0.0429024063050746,0.00030517578125,0.15769406179915968
0.1845,0.0429836064577102,0.00030517578125,0.21541150084052396
0.185,0.0430658906698226,-0.00030517578125,0.2731102407427792
0.1855,0.0431483052670955,0.0,0.3269995703587396
0.186,0.0432306490838527,0.0,0.3750823943263824
0.1865,0.0433124527335166,0.0,0.41605589817235733
