time [s],Lmtc [m],STIM [ ],Fsee [N]
0.0,0.0455022975802421,0.0,0.10904898944215444
0.0004999999999999,0.0455023199319839,0.0006103515625,0.10906223297804747
0.001,0.0455024950206279,0.0,0.10917315535911466
0.0014999999999999,0.0455021522939205,-0.00030517578125,0.10895134395769346
0.002,0.0455017052590847,0.0006103515625,0.10866769558045138
0.0024999999999999,0.0455024354159832,0.0006103515625,0.10914020464282476
0.003,0.0455019325017929,0.00030517578125,0.1088166218586305
0.0034999999999999,0.0455021448433399,0.0006103515625,0.10895554898662126
0.004,0.0455019660294055,0.0006103515625,0.10884212481309534
0.0044999999999999,0.0455022677779197,0.00030517578125,0.10903744489720077
0.005,0.0455020479857921,0.00030517578125,0.108896117085498
0.0054999999999999,0.0455023162066936,0.00030517578125,0.10906887284451913
0.006,0.045501984655857,0.00030517578125,0.10885578605202072
0.0064999999999999,0.0455020703375339,0.00030517578125,0.10891309684145158
0.007,0.0455020144581794,0.00091552734375,0.10887890240517056
0.0074999999999999,0.0455021560192108,0.0006103515625,0.1089711828224955
0.008,0.0455021001398563,0.0006103515625,0.10893550585459716
0.0084999999999999,0.0455022491514682,0.00091552734375,0.10903131313354911
0.009,0.045502170920372,0.0006103515625,0.10898040932879234
0.0094999999999999,0.0455022379755973,0.00030517578125,0.10902318157914365
0.01,0.0455021522939205,0.0006103515625,0.10896762198448719
0.0104999999999999,0.0455013327300548,0.0006103515625,0.1084469654897332
0.011,0.0455008633434772,0.00030517578125,0.10816254295796202
0.0114999999999999,0.0454983040690422,0.00030517578125,0.10656816318742669
0.012,0.0454949513077735,0.00030517578125,0.10453157260227099
0.0124999999999999,0.0454897806048393,0.00030517578125,0.10145192225030532
0.013,0.0454831197857856,0.0006103515625,0.09760448427755235
0.0134999999999999,0.0454748533666133,0.0006103515625,0.09300028579187315
0.014,0.0454654544591903,0.00091552734375,0.0880026903365616
0.0144999999999999,0.045454554259777,0.00030517578125,0.0824821420127284
0.015,0.0454434156417846,0.00030517578125,0.077214493002571
0.0154999999999999,0.0454322136938571,-0.0006103515625,0.07229969973836257
0.016,0.0454201698303222,0.0006103515625,0.06734597793051594
0.0164999999999999,0.0454080738127231,0.0006103515625,0.0627836033758727
0.017,0.0453960336744785,0.0006103515625,0.05864994321345913
0.0174999999999999,0.0453844182193279,0.0006103515625,0.05508557122011059
0.018,0.0453720800578594,0.00091552734375,0.051546630170772566
0.0184999999999999,0.0453604683279991,0.00030517578125,0.0486641781371861
0.019,0.0453482568264007,0.00091552734375,0.04582813795257171
0.0194999999999999,0.0453364737331867,0.0,0.04345532081855623
0.02,0.0453249476850032,0.0,0.041424049626769203
0.0204999999999999,0.0453132428228855,0.0006103515625,0.03953075591807734
0.021,0.0453017465770244,0.00030517578125,0.03790285175911327
0.0214999999999999,0.0452898889780044,0.0006103515625,0.036303175482960665
0.022,0.0452783815562725,0.0006103515625,0.03497857387618632
0.0224999999999999,0.0452667362987995,0.0,0.0337222704884485
0.023,0.0452550761401653,0.00030517578125,0.03256658599666904
0.0234999999999999,0.045243315398693,0.001220703125,0.03146850192616162
0.024,0.0452320538461208,0.0006103515625,0.03061320659868063
0.0244999999999999,0.0452200844883918,0.0006103515625,0.029580083839558232
0.025,0.0452087335288524,0.0006103515625,0.02881234929813508
0.0254999999999999,0.045196957886219,0.0006103515625,0.027947485739138928
0.026,0.0451851561665535,0.0006103515625,0.027122264858586643
0.0264999999999999,0.0451736785471439,0.0006103515625,0.02643512122737356
0.027,0.0451620407402515,0.00030517578125,0.02572227541687416
0.0274999999999999,0.0451505035161972,0.00030517578125,0.0250644707860034
0.028,0.0451387837529182,0.00030517578125,0.024372272248491422
0.0284999999999999,0.0451274141669273,0.0,0.023803083168197764
0.029,0.045115478336811,0.00030517578125,0.023081655957104923
0.0294999999999999,0.0451043769717216,0.0,0.022619409690796503
0.03,0.0450926348567009,0.0006103515625,0.021974792500979456
0.0304999999999999,0.0450812615454196,0.00030517578125,0.021448936978906867
0.031,0.0450695157051086,0.00030517578125,0.020826982558718562
0.0314999999999999,0.0450583808124065,0.00030517578125,0.020383080356106538
0.032,0.045046616345644,-0.00030517578125,0.019769135487228688
0.0324999999999999,0.045034971088171,0.0,0.0192033300779617
0.033,0.0450233109295368,0.0,0.018645346925730225
0.0334999999999999,0.0450118668377399,0.0,0.018152209171998477
0.034,0.0450005009770393,-0.00030517578125,0.017681882570383223
0.0344999999999999,0.0449886620044708,0.0,0.017098201203216326
0.035,0.0449770614504814,0.00030517578125,0.01658832604297593
0.0354999999999999,0.044965423643589,0.0006103515625,0.01607736042075572
0.036,0.044953990727663,0.0006103515625,0.015622782813764977
0.0364999999999999,0.0449422448873519,0.00030517578125,0.015098913791445618
0.037,0.0449309349060058,0.0006103515625,0.01468523169434667
0.0374999999999999,0.0449190437793731,0.0006103515625,0.01414136130715076
0.038,0.0449078939855098,0.0006103515625,0.013775358728211229
0.0384999999999999,0.0448961928486824,0.001220703125,0.013285709950223814
0.039,0.044884618371725,0.00030517578125,0.012833506946793947
0.0394999999999999,0.0448729246854782,0.00030517578125,0.01236317698980886
0.04,0.044861577451229,0.0,0.011973495871223549
0.0404999999999999,0.0448500253260135,0.0006103515625,0.011543758747689505
0.041,0.0448382832109928,0.0006103515625,0.011082923684021372
0.0414999999999999,0.0448269881308078,0.00030517578125,0.010719542418265842
0.042,0.044815432280302,0.0006103515625,0.010306815715896086
0.0424999999999999,0.0448037460446357,0.00030517578125,0.009876708578738236
0.043,0.0447918474674224,0.0006103515625,0.009417299424740424
0.0434999999999999,0.0447809286415576,0.00091552734375,0.009147182950868275
0.044,0.0447689816355705,0.00030517578125,0.008689190515024786
0.0444999999999999,0.0447575598955154,0.00091552734375,0.00833652177992514
0.045,0.0447459183633327,0.0,0.007950738282804683
0.0454999999999999,0.0447342991828918,0.00030517578125,0.007577100671816119
0.046,0.0447224117815494,0.00091552734375,0.007168247387738323
0.0464999999999999,0.044711023569107,0.00030517578125,0.006849866552228381
0.047,0.0446995794773101,0.00030517578125,0.0065263546791989105
0.0474999999999999,0.0446879006922245,0.0006103515625,0.006172653750746698
0.048,0.0446763485670089,0.0006103515625,0.00584622286871955
0.0484999999999999,0.0446650721132755,0.0006103515625,0.005565509545521928
0.049,0.0446535013616085,0.00030517578125,0.005246923995688465
0.0494999999999999,0.0446417368948459,0.00091552734375,0.004910086884480143
0.05,0.0446303151547908,0.00030517578125,0.004628148428814135
0.0504999999999999,0.0446185618638992,0.00030517578125,0.0043100394474864375
0.051,0.0446071773767471,0.0006103515625,0.004046986506295459
0.0514999999999999,0.0445954725146293,0.0006103515625,0.003751597527653619
0.052,0.0445841252803802,0.0006103515625,0.0035064212294045357
0.0524999999999999,0.0445724166929721,0.00030517578125,0.003227110136067979
0.053,0.0445606708526611,0.0006103515625,0.002954095797408539
0.0534999999999999,0.0445492565631866,0.00030517578125,0.0027247631695859137
0.054,0.0445377454161644,0.00030517578125,0.0024927286559968316
0.0544999999999999,0.0445260517299175,0.0006103515625,0.0022521059444483055
0.055,0.0445145033299922,0.00091552734375,0.002034553944104225
0.0554999999999999,0.0445026941597461,-0.0006103515625,0.0018045394674311027
0.056,0.0444913208484649,0.00030517578125,0.0016203891075281785
0.0564999999999999,0.0444800555706024,0.0006103515625,0.0014515805902087617
0.057,0.0444683842360973,0.0006103515625,0.0012615301742311352
0.0574999999999999,0.0444566011428833,0.00030517578125,0.0010759692821802436
0.058,0.0444449409842491,0.0006103515625,0.0009107114697542172
0.0584999999999999,0.0444336049258708,0.0,0.0007748297005866275
0.059,0.0444215685129165,0.0,0.0006138936384495753
0.0595,0.0444103181362152,0.00030517578125,0.0005039576440506781
0.06,0.0443988591432571,0.0006103515625,0.0003950158399725184
0.0605,0.0443870536983013,0.0,0.00028637705342813565
0.061,0.0443753600120544,0.0,0.00019705686738090306
0.0615,0.0443636737763881,0.0006103515625,0.00012352964952934835
0.062,0.0443522967398166,0.00091552734375,7.12865829595061e-05
0.0625,0.0443402603268623,0.0,2.577480392356131e-05
0.0629999999999999,0.04432899877429,0.0006103515625,5.81443211604162e-06
0.0635,0.044317714869976,0.00091552734375,0.0
0.0639999999999999,0.0443060100078582,0.0,0.0
0.0645,0.044294323772192,0.0,0.0
0.0649999999999999,0.0442830696702003,0.0006103515625,0.0
0.0655,0.0442710369825363,0.00030517578125,0.0
0.0659999999999999,0.0442595928907394,0.0,0.0
0.0665,0.0442481786012649,0.00091552734375,0.0
0.0669999999999999,0.0442368984222412,0.0006103515625,0.0
0.0675,0.0442250035703182,0.00030517578125,0.0
0.0679999999999999,0.0442134588956832,0.0,0.0
0.0685,0.0442021675407886,0.0,0.0
0.0689999999999999,0.0441902466118335,0.0,0.0
0.0695,0.0441787280142307,0.0006103515625,0.0
0.0699999999999999,0.0441670790314674,0.00030517578125,0.0
0.0705,0.0441556461155414,0.00091552734375,0.0
0.0709999999999999,0.0441439002752304,0.00030517578125,0.0
0.0715,0.0441326536238193,0.0,0.0
0.0719999999999999,0.0441208481788635,0.00030517578125,0.0
0.0725,0.0441092476248741,0.00091552734375,0.0
0.0729999999999999,0.0440977625548839,0.0006103515625,0.0
0.0735,0.0440862886607646,-0.00030517578125,0.0
0.0739999999999999,0.0440744571387767,0.0006103515625,0.0
0.0745,0.0440630838274955,0.0006103515625,0.0
0.0749999999999999,0.0440513268113136,0.00091552734375,0.0
0.0755,0.0440396107733249,0.0006103515625,0.0
0.0759999999999999,0.0440281704068183,0.00030517578125,0.0
0.0765,0.0440165288746356,0.0006103515625,0.0
0.0769999999999999,0.0440050140023231,0.00030517578125,0.0
0.0775,0.0439934022724628,0.00091552734375,0.0
0.0779999999999999,0.0439820438623428,0.00030517578125,0.0
0.0785,0.0439698956906795,0.0,0.0
0.0789999999999999,0.043958880007267,0.00030517578125,0.0
0.0795,0.0439470522105693,0.00030517578125,0.0
0.0799999999999999,0.0439355298876762,0.0006103515625,0.0
0.0805,0.0439238026738166,0.00030517578125,0.0
0.0809999999999999,0.043912336230278,0.00091552734375,0.0
0.0815,0.0439008995890617,0.0006103515625,0.0
0.0819999999999999,0.0438892170786857,0.00030517578125,0.0
0.0825,0.0438777469098567,0.0006103515625,0.0
0.0829999999999999,0.0438661351799964,0.00091552734375,0.0
0.0835,0.0438545644283294,0.00091552734375,0.0
0.0839999999999999,0.0438428074121475,-0.00030517578125,0.0
0.0845,0.04383135586977,0.0006103515625,0.0
0.0849999999999999,0.0438196770846843,0.00091552734375,0.0
0.0855,0.0438085161149501,-0.0006103515625,0.0
0.0859999999999999,0.0437964759767055,0.00030517578125,0.0
0.0865,0.0437853932380676,0.0006103515625,0.0
0.0869999999999999,0.043773628771305,0.0006103515625,0.0
0.0875,0.0437616780400276,0.0006103515625,0.0
0.0879999999999999,0.0437502674758434,0.00091552734375,0.0
0.0885,0.0437387488782405,0.0,0.0
0.0889999999999999,0.0437269359827041,0.0006103515625,0.0
0.0895,0.0437155105173587,0.00030517578125,0.0
0.0899999999999999,0.0437041036784648,0.001220703125,0.0
0.0905,0.0436922870576381,0.0006103515625,0.0
0.0909999999999999,0.0436810366809368,0.0,0.0
0.0915,0.0436689965426921,0.00091552734375,0.0
0.0919999999999999,0.0436575599014759,0.00030517578125,0.0
0.0925,0.0436458401381969,0.00030517578125,0.0
0.0929999999999999,0.0436346754431724,0.0006103515625,0.0
0.0935,0.0436228178441524,0.0006103515625,0.0
0.0939999999999999,0.0436115004122257,0.00091552734375,0.0
0.0945,0.0435996130108833,0.0006103515625,0.0
0.0949999999999999,0.0435878224670887,0.00030517578125,0.0
0.0955,0.0435764268040657,0.0006103515625,0.0
0.0959999999999999,0.043564535677433,0.00030517578125,0.0
0.0965,0.0435532927513122,0.0006103515625,0.0
0.0969999999999999,0.0435416102409362,0.0006103515625,0.0
0.0975,0.0435302332043647,0.0006103515625,0.0
0.0979999999999999,0.0435185395181179,0.0006103515625,0.0
0.0985,0.0435070134699344,0.0006103515625,0.0
0.0989999999999999,0.0434953793883323,0.00091552734375,0.0
0.0995,0.043484129011631,0.00030517578125,0.0
0.0999999999999999,0.0434722416102886,0.00030517578125,0.0
0.1005,0.0434608943760395,0.00030517578125,0.0
0.1009999999999999,0.0434492975473403,0.0006103515625,0.0
0.1015,0.0434377454221248,0.00030517578125,0.0
0.1019999999999999,0.0434261411428451,0.00091552734375,0.0
0.1025,0.0434143804013729,0.00030517578125,0.0
0.1029999999999999,0.0434033013880252,0.00091552734375,0.0
0.1035,0.0433910861611366,0.0,0.0
0.1039999999999999,0.0433799289166927,0.0006103515625,0.0
0.1045,0.0433681607246398,0.00030517578125,0.0
0.1049999999999999,0.0433568656444549,-0.00030517578125,0.0
0.1055,0.0433447323739528,0.0,0.0
0.1059999999999999,0.0433334223926067,0.0006103515625,0.0
0.1065,0.0433220528066158,0.0006103515625,0.0
0.1069999999999999,0.0433106087148189,0.00030517578125,0.0
0.1075,0.0432988405227661,0.0006103515625,0.0
0.1079999999999999,0.0432873852550983,0.0006103515625,0.0
0.1085,0.0432757511734962,0.0006103515625,0.0
0.1089999999999999,0.043264266103506,0.0006103515625,0.0
0.1095,0.0432524196803569,0.0006103515625,0.0
0.1099999999999999,0.043240912258625,0.00030517578125,0.0
0.1105,0.0432295501232147,0.00030517578125,0.0
0.1109999999999999,0.0432179309427738,0.00030517578125,0.0
0.1115,0.0432063974440097,0.0,0.0
0.1119999999999999,0.0431944392621517,0.0006103515625,0.0
0.1125,0.0431830883026123,0.00030517578125,0.0
0.1129999999999999,0.0431714057922363,0.00091552734375,0.0
0.1135,0.0431599281728267,0.00030517578125,0.0
0.1139999999999999,0.0431480966508388,0.0006103515625,0.0
0.1145,0.0431369319558143,0.00030517578125,0.0
0.1149999999999999,0.0431250445544719,0.00030517578125,0.0
0.1155,0.0431139394640922,0.00091552734375,0.0
0.1159999999999999,0.0431021861732006,0.0,0.0
0.1165,0.0430905148386955,0.00030517578125,0.0
0.1169999999999999,0.043079100549221,0.0006103515625,0.0
0.1175,0.0430677086114883,0.0006103515625,0.0
0.118,0.0430559106171131,0.0,0.0
0.1185,0.0430440790951252,0.00091552734375,0.0
0.119,0.0430327728390693,0.0006103515625,0.0
0.1195,0.0430211052298545,0.0006103515625,0.0
0.12,0.0430095121264457,0.00030517578125,0.0
0.1205,0.0429979227483272,0.0006103515625,0.0
0.121,0.042986549437046,0.00091552734375,0.0
0.1215,0.042974691838026,0.00091552734375,0.0
0.122,0.0429631546139717,0.00030517578125,0.0
0.1225,0.0429515875875949,0.0006103515625,0.0
0.123,0.0429398715496063,0.00091552734375,0.0
0.1235,0.0429284423589706,0.00030517578125,0.0
0.124,0.0429165586829185,0.00091552734375,0.0
0.1245,0.0429053157567977,0.0006103515625,0.0
0.125,0.0428937412798404,0.0006103515625,0.0
0.1254999999999999,0.0428821519017219,0.0006103515625,0.0
0.126,0.0428703390061855,0.0,0.0
0.1264999999999999,0.0428590327501297,0.00030517578125,0.0
0.127,0.0428472012281417,0.0006103515625,0.0
0.1274999999999999,0.0428357943892478,0.00030517578125,0.0
0.128,0.0428240820765495,0.0006103515625,0.0
0.1284999999999999,0.0428126081824302,0.00091552734375,0.0
0.129,0.0428005903959274,0.00030517578125,0.0
0.1294999999999999,0.0427891612052917,0.00030517578125,0.0
0.13,0.0427776165306568,0.0006103515625,0.0
0.1304999999999999,0.0427660532295703,0.00030517578125,0.0
0.131,0.0427545420825481,0.00030517578125,0.0
0.1314999999999999,0.0427426733076572,0.00030517578125,0.0
0.132,0.0427314862608909,0.0006103515625,0.0
0.1324999999999999,0.0427198968827724,0.00030517578125,0.0
0.133,0.0427082665264606,0.0,0.0
0.1334999999999999,0.042696263641119,0.0006103515625,0.0
0.134,0.0426853112876415,0.00091552734375,0.0
0.1344999999999999,0.0426733717322349,0.0006103515625,0.0
0.135,0.0426620431244373,0.0006103515625,0.0
0.1354999999999999,0.0426505059003829,0.00091552734375,0.0
0.136,0.0426388904452323,0.0,0.0
0.1364999999999999,0.0426272749900817,0.00030517578125,0.0
0.137,0.0426156744360923,0.00030517578125,0.0
0.1374999999999999,0.0426043234765529,0.0006103515625,0.0
0.138,0.042592417448759,0.00030517578125,0.0
0.1384999999999999,0.042580921202898,0.00091552734375,0.0
0.139,0.0425693988800048,0.00030517578125,0.0
0.1394999999999999,0.0425579622387886,0.0,0.0
0.14,0.0425461530685424,0.0006103515625,0.0
0.1404999999999999,0.042534664273262,0.00091552734375,0.0
0.141,0.042523119598627,0.0006103515625,0.0
0.1414999999999999,0.0425115637481212,0.0,0.0
0.142,0.0425001457333564,0.0006103515625,0.0
0.1424999999999999,0.0424885191023349,0.00091552734375,0.0
0.143,0.0424768105149269,0.0006103515625,0.0
0.1434999999999999,0.0424651205539703,0.00030517578125,0.0
0.144,0.0424535982310771,0.0006103515625,0.0
0.1444999999999999,0.0424418821930885,0.0006103515625,0.0
0.145,0.0424304269254207,0.00030517578125,0.0
0.1454999999999999,0.0424188710749149,0.00030517578125,0.0
0.146,0.0424075536429882,0.0006103515625,0.0
0.1464999999999999,0.0423955395817756,0.0006103515625,0.0
0.147,0.0423841923475265,0.0006103515625,0.0
0.1474999999999999,0.0423724651336669,0.0006103515625,0.0
0.148,0.042360670864582,0.00091552734375,0.0
0.1484999999999999,0.0423490405082702,0.0006103515625,0.0
0.149,0.0423377975821495,0.00091552734375,0.0
0.1494999999999999,0.0423264876008033,0.0006103515625,0.0
0.15,0.0423144735395908,-0.00030517578125,0.0
0.1504999999999999,0.0423034206032753,0.0006103515625,0.0
0.151,0.0422914922237396,0.0006103515625,0.0
0.1514999999999999,0.0422797612845897,0.00030517578125,0.0
0.152,0.0422680489718914,0.00091552734375,0.0
0.1524999999999999,0.0422567948698997,0.0006103515625,0.0
0.153,0.0422449670732021,0.0006103515625,0.0
0.1534999999999999,0.0422338508069515,0.0006103515625,0.0
0.154,0.0422221049666404,0.00091552734375,0.0
0.1544999999999999,0.042210329324007,0.001220703125,0.0
0.155,0.0421987362205982,0.00091552734375,0.0
0.1554999999999999,0.0421870052814483,0.0,0.0
0.156,0.0421754792332649,0.0006103515625,0.0
0.1564999999999999,0.0421639792621135,0.00091552734375,0.0
0.157,0.0421526469290256,0.00030517578125,0.0
0.1574999999999999,0.042140532284975,0.00030517578125,0.0
0.158,0.0421294085681438,0.00030517578125,0.0
0.1584999999999999,0.0421174652874469,0.00030517578125,0.0
0.159,0.0421061441302299,0.00030517578125,0.0
0.1594999999999999,0.0420942157506942,0.0006103515625,0.0
0.16,0.042082779109478,0.00091552734375,0.0
0.1604999999999999,0.0420711897313594,0.0006103515625,0.0
0.161,0.0420594364404678,0.00030517578125,0.0
0.1614999999999999,0.0420476980507373,0.0006103515625,0.0
0.162,0.0420360118150711,0.00091552734375,0.0
0.1624999999999999,0.0420249365270137,0.00091552734375,0.0
0.163,0.0420128293335437,0.00030517578125,0.0
0.1634999999999999,0.0420016162097454,0.00030517578125,0.0
0.164,0.0419900342822074,0.0,0.0
0.1644999999999999,0.0419783927500247,0.0006103515625,0.0
0.165,0.0419667810201644,0.0006103515625,0.0
0.1654999999999999,0.0419555120170116,0.0,0.0
0.166,0.0419437922537326,0.00091552734375,0.0
0.1664999999999999,0.0419322438538074,0.00091552734375,0.0
0.167,0.0419208221137523,0.00091552734375,0.0
0.1674999999999999,0.0419092588126659,0.0006103515625,0.0
0.168,0.0418977588415145,0.0006103515625,0.0
0.1684999999999999,0.0418860204517841,0.0006103515625,0.0
0.169,0.0418745577335357,0.00030517578125,0.0
0.1694999999999999,0.0418630503118038,0.00030517578125,0.0
0.17,0.0418517589569091,0.00030517578125,0.0
0.1704999999999999,0.0418396927416324,0.001220703125,0.0
0.171,0.0418284833431243,0.00030517578125,0.0
0.1714999999999999,0.0418169051408767,0.00030517578125,0.0
0.172,0.0418053418397903,0.0006103515625,0.0
0.1725,0.0417935773730278,0.00030517578125,0.0
0.173,0.0417823679745197,0.0006103515625,0.0
0.1735,0.0417704693973064,0.0006103515625,0.0
0.174,0.0417588762938976,0.00030517578125,0.0
0.1745,0.0417476892471313,0.0006103515625,0.0
0.175,0.0417359136044979,0.00091552734375,0.0
0.1755,0.0417243801057338,0.0006103515625,0.0
0.176,0.0417123660445213,0.00030517578125,0.0
0.1765,0.0417012237012386,0.00030517578125,0.0
0.177,0.0416891872882843,0.0006103515625,0.0
0.1775,0.0416780710220336,0.0006103515625,0.0
