time [s],Lmtc [m],STIM [ ],Fsee [N]
0.0,0.0460066199302673,0.0,0.08162750859761744
0.0004999999999999,0.046006616204977,0.00030517578125,0.08162503752962864
0.001,0.0460068881511688,0.00030517578125,0.08179798860799764
0.0014999999999999,0.0460063368082046,0.00030517578125,0.08144503094793658
0.002,0.0460069552063941,0.00030517578125,0.0818415417724362
0.0024999999999999,0.0460068471729755,0.00030517578125,0.08176964518598842
0.003,0.04600665345788,0.0,0.08164434584384778
0.0034999999999999,0.0460066795349121,0.00030517578125,0.08166066449079226
0.004,0.0460066050291061,0.0006103515625,0.08161284114591168
0.0044999999999999,0.046006865799427,0.0006103515625,0.08177888632256536
0.005,0.0460063144564628,0.0,0.08142703202755072
0.0054999999999999,0.0460068508982658,0.00030517578125,0.08177201318199517
0.006,0.0460067652165889,0.00030517578125,0.08171529288189361
0.0064999999999999,0.046006441116333,0.0006103515625,0.08150818138195708
0.007,0.0460066758096218,0.0006103515625,0.08165986610690404
0.0074999999999999,0.0460060015320777,0.00091552734375,0.08123385359550091
0.008,0.0460055172443389,0.0,0.08094079160970107
0.0084999999999999,0.0460038483142852,0.0006103515625,0.07991589752634187
0.009,0.0460018292069435,0.0006103515625,0.07871036543166737
0.0094999999999999,0.0459993332624435,0.0006103515625,0.07725760419573256
0.01,0.0459958501160144,0.0,0.075262691272943
0.0104999999999999,0.0459923669695854,0.0006103515625,0.07335511326019999
0.011,0.0459887608885765,0.0006103515625,0.07145902131253615
0.0114999999999999,0.0459845960140228,0.00030517578125,0.06932351855764433
0.012,0.0459805838763713,0.0006103515625,0.06737730994602305
0.0124999999999999,0.0459762178361415,0.00030517578125,0.0653239809755545
0.013,0.0459723100066185,0.00091552734375,0.06362666531505086
0.0134999999999999,0.0459680743515491,0.00091552734375,0.06183095645872577
0.014,0.0459638647735118,0.0006103515625,0.060138455070642555
0.0144999999999999,0.0459600314497947,0.0006103515625,0.05873104619735554
0.015,0.045955367386341,-0.00030517578125,0.05695447674072175
0.0154999999999999,0.0459517985582351,0.00091552734375,0.05583883066129456
0.016,0.0459475591778755,0.00030517578125,0.05443125375251073
0.0164999999999999,0.0459435656666755,0.0006103515625,0.05321979151813147
0.017,0.0459395460784435,0.0006103515625,0.05205537078875805
0.0174999999999999,0.045935183763504,-0.0006103515625,0.05077912570315505
0.018,0.0459312461316585,0.0006103515625,0.04977684462905676
0.0184999999999999,0.0459270998835563,0.00091552734375,0.048722750519015354
0.019,0.0459230728447437,0.0006103515625,0.047779022795928536
0.0194999999999999,0.0459188669919967,0.00030517578125,0.04679715836360636
0.02,0.0459148250520229,0.0006103515625,0.0459420469736702
0.0204999999999999,0.0459109283983707,0.0006103515625,0.045196924768308416
0.021,0.0459066033363342,0.0006103515625,0.04428949130738978
0.0214999999999999,0.0459025502204895,0.00030517578125,0.043552223677498975
0.022,0.0458989329636096,0.0,0.04304878427855138
0.0224999999999999,0.0458945073187351,0.0006103515625,0.042202660315391986
0.023,0.0458905845880508,0.00030517578125,0.041624278577808066
0.0234999999999999,0.0458865463733673,0.0006103515625,0.0410212801431084
0.024,0.0458823777735233,0.0006103515625,0.04038901196242283
0.0244999999999999,0.045878529548645,0.0006103515625,0.03992703393107797
0.025,0.045874286442995,0.0006103515625,0.0393132582619324
0.0254999999999999,0.0458705127239227,0.001220703125,0.038931179829024484
0.026,0.0458664707839489,0.0006103515625,0.03844918921409143
0.0264999999999999,0.0458623804152011,0.0006103515625,0.03796770392600703
0.027,0.0458585768938064,0.0,0.03762929577540216
0.0274999999999999,0.0458543114364147,0.00091552734375,0.03710894878875187
0.028,0.0458500832319259,0.00030517578125,0.03662797113755734
0.0284999999999999,0.0458463095128536,0.00091552734375,0.036357746141701536
0.029,0.0458422303199768,0.0,0.035969622496654495
0.0294999999999999,0.0458380728960037,0.0,0.03556525227388277
0.03,0.0458337850868701,0.00030517578125,0.03512421799607727
0.0304999999999999,0.0458303466439247,0.00030517578125,0.03504942428837771
0.031,0.045826070010662,0.00030517578125,0.034630792439314266
0.0314999999999999,0.0458220280706882,0.0006103515625,0.03432506569078479
0.032,0.0458179377019405,0.0,0.034010899398246995
0.0324999999999999,0.0458140671253204,0.0006103515625,0.03379665882746227
0.033,0.0458100214600563,0.0006103515625,0.03351813280603103
0.0334999999999999,0.0458058007061481,0.0006103515625,0.033179249186793096
0.034,0.0458019562065601,0.00030517578125,0.0330029152350821
0.0344999999999999,0.0457980223000049,0.00030517578125,0.032795193750676244
0.035,0.0457936860620975,0.00091552734375,0.032434214283769636
0.0354999999999999,0.0457899682223796,0.00091552734375,0.03233062404171251
0.036,0.0457855910062789,0.0006103515625,0.03196836824316133
0.0364999999999999,0.0457816496491432,0.00091552734375,0.03179036605301782
0.037,0.0457776486873626,0.00030517578125,0.03159313179380364
0.0374999999999999,0.0457735061645507,0.001220703125,0.03134605781575063
0.038,0.0457694828510284,0.00030517578125,0.031152858813882755
0.0384999999999999,0.0457653701305389,0.00030517578125,0.030929810907435372
0.039,0.0457617416977882,0.00030517578125,0.030899361827713835
0.0394999999999999,0.0457575470209121,0.0006103515625,0.030647988027792665
0.04,0.045753501355648,0.00030517578125,0.030461645904532163
0.0404999999999999,0.0457495488226413,0.00091552734375,0.030315105420301938
0.041,0.0457457937300205,0.00030517578125,0.030246063138436686
0.0414999999999999,0.0457415804266929,0.0006103515625,0.030001452825050755
0.042,0.0457376055419445,0.00091552734375,0.029854781891015935
0.0424999999999999,0.0457335449755191,0.0,0.029678366526151218
0.043,0.0457292199134826,0.00030517578125,0.02940657403700847
0.0434999999999999,0.0457251742482185,0.00030517578125,0.029248342187435626
0.044,0.0457215644419193,0.00030517578125,0.02925624484293305
0.0444999999999999,0.0457175485789775,0.00091552734375,0.02910712175840597
0.045,0.0457133576273918,0.00030517578125,0.02889541088574284
0.0454999999999999,0.0457095876336097,0.00030517578125,0.028846152529893258
0.046,0.0457053557038307,0.00030517578125,0.028622976073026277
0.0464999999999999,0.0457015708088874,0.0,0.02857184152356439
0.047,0.0456973128020763,0.0006103515625,0.028343633241498606
0.0474999999999999,0.045693352818489,0.0006103515625,0.028232037710419676
0.048,0.045689221471548,0.0,0.028058330994439242
0.0484999999999999,0.0456851571798324,0.0,0.02791303137526681
0.049,0.0456815063953399,0.00091552734375,0.02792152417274584
0.0494999999999999,0.0456773042678833,0.00030517578125,0.027723747172728987
0.05,0.045673057436943,0.00091552734375,0.02751519742051171
0.0504999999999999,0.0456692278385162,0.00091552734375,0.02746368349943182
0.051,0.0456655621528625,0.0,0.02746958170222442
0.0514999999999999,0.045661125332117,0.00030517578125,0.027191666844687348
0.052,0.0456569120287895,0.00030517578125,0.027004215750145392
0.0524999999999999,0.0456532351672649,0.00091552734375,0.027014515519013658
0.053,0.0456490777432918,0.00030517578125,0.026847023090668446
0.0534999999999999,0.0456448569893837,0.00030517578125,0.02666079231432095
0.054,0.0456410311162471,-0.00030517578125,0.02662061216369673
0.0544999999999999,0.0456371493637561,0.001220703125,0.026557986686854492
0.055,0.0456332862377166,0.0006103515625,0.026500707907767554
0.0554999999999999,0.0456291250884532,0.00091552734375,0.026335974808222477
0.056,0.045624990016222,0.0006103515625,0.02618447062265788
0.0564999999999999,0.0456212684512138,0.0006103515625,0.026182859385043458
0.057,0.0456167571246624,0.00030517578125,0.02589778086456282
0.0574999999999999,0.0456128790974617,0.00030517578125,0.025845788351324377
0.058,0.0456090085208416,0.0006103515625,0.0257947906149031
0.0584999999999999,0.0456049367785453,0.0006103515625,0.025671444524038033
0.059,0.0456010624766349,0.0,0.025619319535037842
0.0595,0.0455968901515007,0.0006103515625,0.025461336990646496
0.06,0.0455929525196552,0.00030517578125,0.025389101833901015
0.0605,0.0455889925360679,0.0006103515625,0.02530861408211038
0.061,0.0455849133431911,0.00091552734375,0.025186565038301103
0.0615,0.0455809459090232,0.0006103515625,0.0251054194959811
0.062,0.0455767959356308,0.00030517578125,0.024961024215537402
0.0625,0.0455725081264972,0.00030517578125,0.02477212746630997
0.0629999999999999,0.045568760484457,0.0006103515625,0.024774932301298208
0.0635,0.0455647408962249,0.001220703125,0.02468009889843479
0.0639999999999999,0.0455608628690242,0.0,0.02463478811899361
0.0645,0.0455568917095661,0.0006103515625,0.024556002552937054
0.0649999999999999,0.0455528162419796,0.00030517578125,0.02444152839991221
0.0655,0.0455485954880714,0.00091552734375,0.024279270063973134
0.0659999999999999,0.0455445721745491,0.00091552734375,0.02418865856965119
0.0665,0.0455406755208969,0.0006103515625,0.024141978686526906
0.0669999999999999,0.0455364808440208,0.0006103515625,0.023992590535296652
0.0675,0.0455324612557888,0.00091552734375,0.02390609064777658
0.0679999999999999,0.0455287732183933,0.0006103515625,0.02393262944696628
0.0685,0.0455245561897754,0.0006103515625,0.02377537926660674
0.0689999999999999,0.0455207601189613,0.00030517578125,0.023764519512018203
0.0695,0.045516338199377,0.0006103515625,0.023539798163168865
0.0699999999999999,0.045512355864048,0.00030517578125,0.023470418438503865
0.0705,0.0455084107816219,0.00030517578125,0.023413529258768846
0.0709999999999999,0.0455042161047458,0.00030517578125,0.02327240047023903
0.0715,0.0455001406371593,0.0006103515625,0.023174445484270254
0.0719999999999999,0.0454963520169258,0.00091552734375,0.02317363387994742
0.0725,0.0454925820231437,0.00030517578125,0.023176221433500434
0.0729999999999999,0.0454880967736244,0.0006103515625,0.022937254951607342
0.0735,0.0454842373728752,0.00091552734375,0.022914162484837027
0.0739999999999999,0.0454805046319961,0.0006103515625,0.02293117791840625
0.0745,0.0454760901629924,0.00030517578125,0.022718572629115055
0.0749999999999999,0.0454720556735992,0.00091552734375,0.022638662439046393
0.0755,0.0454677306115627,0.00030517578125,0.022463595262916636
0.0759999999999999,0.0454641468822956,0.0006103515625,0.02253762983090515
0.0765,0.045460045337677,0.0006103515625,0.022435351221972842
0.0769999999999999,0.0454557612538337,0.0006103515625,0.02227511393808309
0.0775,0.0454523377120494,0.0006103515625,0.022401554936677726
0.0779999999999999,0.0454477742314338,0.00030517578125,0.02214605072501565
0.0785,0.0454438738524913,0.0006103515625,0.022116145187960384
0.0789999999999999,0.0454399585723876,0.0006103515625,0.022080027155842813
0.0795,0.0454357415437698,0.001220703125,0.021944610972609947
0.0799999999999999,0.0454318933188915,0.0006103515625,0.02193262314295265
0.0805,0.0454275719821453,0.0,0.021765050418591076
0.0809999999999999,0.0454237461090087,0.00030517578125,0.021762997311979605
0.0815,0.0454194284975528,0.00030517578125,0.021599562384285686
0.0819999999999999,0.0454155132174491,0.0006103515625,0.0215708473027296
0.0825,0.0454116612672805,0.00091552734375,0.021561462002051265
0.0829999999999999,0.0454073138535022,0.00030517578125,0.02139062177481311
0.0835,0.0454036667943,0.00030517578125,0.021449964760112662
0.0839999999999999,0.0453994907438755,0.0006103515625,0.021334442413830527
0.0845,0.0453955084085464,0.001220703125,0.021283856901539337
0.0849999999999999,0.0453914739191532,0.0,0.021216518249838202
0.0855,0.0453872829675674,0.00091552734375,0.02109982900966593
0.0859999999999999,0.045383621007204,0.00030517578125,0.0211548603024846
0.0865,0.0453794635832309,0.00091552734375,0.021047443703257784
0.0869999999999999,0.0453752391040325,0.0006103515625,0.020921389675860578
0.0875,0.0453713722527027,0.0006103515625,0.020912290503491165
0.0879999999999999,0.045367281883955,0.0006103515625,0.020830550284128568
0.0885,0.045363325625658,0.0006103515625,0.02079268803157872
0.0889999999999999,0.0453595966100692,0.0006103515625,0.020826404403199404
0.0895,0.0453555025160312,0.0006103515625,0.02074125339337253
0.0899999999999999,0.0453512780368328,0.0,0.020616747923411588
0.0905,0.0453470274806022,0.0,0.020487531260361007
0.0909999999999999,0.045343343168497,0.0,0.02054014660025975
0.0915,0.0453391745686531,0.0,0.020436467327794153
0.0919999999999999,0.0453350953757762,0.0006103515625,0.02036356973155468
0.0925,0.0453309677541255,0.001220703125,0.020276690675880626
0.0929999999999999,0.045327391475439,0.0006103515625,0.020364350668573245
0.0935,0.0453231260180473,0.00030517578125,0.020231024172824498
0.0939999999999999,0.0453189648687839,0.00030517578125,0.020134480575161567
0.0945,0.045315247029066,0.00091552734375,0.020178553938843796
0.0949999999999999,0.0453111305832862,0.0,0.020094800645041377
0.0955,0.0453071966767311,0.0006103515625,0.020069778305367096
0.0959999999999999,0.0453033708035945,0.00030517578125,0.02007783626482439
0.0965,0.0452987812459468,0.00030517578125,0.019846975850580047
0.0969999999999999,0.045294851064682,0.00030517578125,0.01982897040830911
0.0975,0.0452910661697387,0.0,0.01985519214832418
0.0979999999999999,0.045286800712347,0.00091552734375,0.019730221480778173
0.0985,0.0452828034758567,0.001220703125,0.019691914198404936
0.0989999999999999,0.0452788285911083,0.0006103515625,0.019660694191248437
0.0995,0.0452747195959091,0.00091552734375,0.019588196961539836
0.0999999999999999,0.0452705696225166,0.0006103515625,0.019504882896296122
0.1005,0.0452667027711868,0.0006103515625,0.019510481156186133
0.1009999999999999,0.045262973755598,0.00091552734375,0.01955688186001912
0.1015,0.045258417725563,0.0,0.01934658312408985
0.1019999999999999,0.0452546440064907,0.0006103515625,0.019383449353425276
0.1025,0.0452506020665168,0.00030517578125,0.019335592406970758
0.1029999999999999,0.04524652287364,0.00030517578125,0.019277201700750347
0.1035,0.0452427119016647,0.0006103515625,0.019302034407588046
0.1039999999999999,0.0452383793890476,0.00030517578125,0.019165694660863878
0.1045,0.0452349074184894,0.00030517578125,0.01929620312456024
0.1049999999999999,0.0452304221689701,0.0,0.0191115354870302
0.1055,0.0452264435589313,0.0006103515625,0.019087659708273287
0.1059999999999999,0.0452225282788276,0.00091552734375,0.019083001038164796
0.1065,0.0452184900641441,0.0006103515625,0.01904025607162571
0.1069999999999999,0.0452145487070083,0.00030517578125,0.019027718387719748
0.1075,0.0452102720737457,0.0006103515625,0.0189133314020262
0.1079999999999999,0.0452062748372554,0.00091552734375,0.018887379293025433
0.1085,0.0452025420963764,0.0006103515625,0.018941583924570307
0.1089999999999999,0.0451983697712421,0.00091552734375,0.018859865284306034
0.1095,0.0451941452920436,-0.00030517578125,0.018765220114693094
0.1099999999999999,0.0451899282634258,0.0006103515625,0.0186761336944775
0.1105,0.0451860688626766,0.00030517578125,0.018697299315802555
0.1109999999999999,0.0451822653412818,0.00091552734375,0.018733710497686688
0.1115,0.0451782047748565,0.0006103515625,0.018690843356556505
0.1119999999999999,0.0451739206910133,0.00030517578125,0.018582068133309104
0.1125,0.0451699495315551,0.00030517578125,0.018570841920979513
0.1129999999999999,0.0451661832630634,0.00030517578125,0.01862090358484745
0.1135,0.0451621413230896,0.00030517578125,0.018585926831769368
0.1139999999999999,0.0451577790081501,0.001220703125,0.018456051896461986
0.1145,0.0451540723443031,0.001220703125,0.01852696565825912
0.1149999999999999,0.04514991492033,0.0,0.01845975516554298
0.1155,0.0451460778713226,0.00030517578125,0.0184907006914663
0.1159999999999999,0.045141689479351,0.0006103515625,0.018355398897155567
0.1165,0.0451377481222152,0.0006103515625,0.018358494386020396
0.1169999999999999,0.0451337061822414,0.0006103515625,0.018331157908505317
0.1175,0.0451297312974929,0.0006103515625,0.0183245317394594
0.118,0.0451258160173893,0.00030517578125,0.018335622416543997
0.1185,0.0451216958463192,0.0,0.01828502381468588
0.119,0.0451178513467311,0.00030517578125,0.018318251642729017
0.1195,0.0451135784387588,0.00030517578125,0.018222554578210995
0.12,0.04510984942317,0.00030517578125,0.018292179313362144
0.1205,0.0451057143509388,0.0,0.01823827559097083
0.121,0.045101698487997,0.0,0.01822187689430711
0.1215,0.0450974106788635,0.0,0.018125489463044483
0.122,0.0450934059917926,0.0006103515625,0.018116883692395423
0.1225,0.0450894273817539,0.0006103515625,0.018116286251013813
0.123,0.0450854189693927,-0.00030517578125,0.01810689887062073
0.1235,0.0450812019407749,0.0,0.018036221983173485
0.124,0.0450774207711219,0.00091552734375,0.018097298290166684
0.1245,0.045073315501213,0.00030517578125,0.01806036948457514
0.125,0.045069009065628,0.0006103515625,0.017965735231289554
0.1254999999999999,0.0450652502477169,0.0006103515625,0.01803659966036795
0.126,0.0450608916580677,0.0,0.017927819731483288
0.1264999999999999,0.0450570546090602,0.0,0.017977106558671574
0.127,0.0450532212853431,0.00030517578125,0.018025669550355134
0.1274999999999999,0.0450489185750484,0.0,0.017934144997565037
0.128,0.0450446680188179,0.0006103515625,0.017861965345670965
0.1284999999999999,0.0450409390032291,0.0006103515625,0.017946081299031122
0.129,0.0450369603931903,0.0006103515625,0.01795347125460934
0.1294999999999999,0.0450329966843128,0.0,0.01796516335333968
0.13,0.0450287833809852,0.00030517578125,0.017902978343119647
0.1304999999999999,0.0450249277055263,0.0006103515625,0.017948712855368892
0.131,0.0450206585228443,0.00091552734375,0.01787099767011812
0.1314999999999999,0.0450167134404182,0.0,0.017891769430882182
0.132,0.0450127832591533,0.00030517578125,0.017916198758247088
0.1324999999999999,0.0450085885822773,0.00091552734375,0.017861972134663853
0.133,0.0450046434998512,0.00091552734375,0.017883429670100093
0.1334999999999999,0.0450004488229751,0.0006103515625,0.017830663312547835
0.134,0.0449968054890632,0.0,0.01794222026094888
0.1344999999999999,0.0449923388659954,0.0,0.017807331461596895
0.135,0.0449886918067932,0.0006103515625,0.01791888597035248
0.1354999999999999,0.0449847504496574,0.0006103515625,0.01793969170726369
0.136,0.0449806042015552,0.0006103515625,0.01789943162213648
0.1364999999999999,0.0449769012629985,0.00030517578125,0.01799157140758486
0.137,0.0449723340570926,-0.00030517578125,0.017825672378736467
0.1374999999999999,0.0449687540531158,0.0006103515625,0.01795676301799516
0.138,0.0449648238718509,0.00030517578125,0.01797971125333583
0.1384999999999999,0.0449604615569114,0.0006103515625,0.017874476643639895
0.139,0.044957049190998,0.00030517578125,0.0180534474716213
0.1394999999999999,0.0449524596333503,0.0006103515625,0.0178785338828708
0.14,0.0449485443532466,0.0006103515625,0.017909440130840032
0.1404999999999999,0.0449446886777877,0.00091552734375,0.017956718497753654
0.141,0.0449407026171684,0.0006103515625,0.017963786413179937
0.1414999999999999,0.0449365861713886,0.0006103515625,0.017932365057599178
0.142,0.0449323542416095,0.0006103515625,0.017868366919241627
0.1424999999999999,0.0449287109076976,0.00030517578125,0.017980231073014243
0.143,0.0449244603514671,0.0,0.01790886539103707
0.1434999999999999,0.0449203699827194,0.0006103515625,0.017887577032390013
0.144,0.0449165627360343,0.0006103515625,0.01795056400043127
0.1444999999999999,0.0449125207960605,0.0006103515625,0.017942137271801512
0.145,0.0449083112180233,0.00030517578125,0.017884805670766956
0.1454999999999999,0.0449043996632099,0.00030517578125,0.01791749823922832
0.146,0.0449003688991069,0.0006103515625,0.017913884566735563
0.1464999999999999,0.0448964722454547,0.00091552734375,0.017950077825244846
0.147,0.0448921807110309,0.00030517578125,0.017868670450413786
0.1474999999999999,0.044888611882925,0.0,0.018003373004332256
0.148,0.04488430544734,0.0,0.017915448538468128
0.1484999999999999,0.0448802337050437,0.0,0.017900193453474794
0.149,0.0448765009641647,0.0006103515625,0.01798547900028105
0.1494999999999999,0.044872161000967,0.0006103515625,0.01788861817651979
0.15,0.0448683500289917,0.00030517578125,0.017951504407741396
