time [s],Lmtc [m],STIM [ ],Fsee [N]
0.0,0.0460065342485904,0.0006103515625,0.08162475518289523
0.0004999999999999,0.046006716787815,0.00030517578125,0.08174080475329039
0.001,0.046006791293621,0.0006103515625,0.08178644613234405
0.0014999999999999,0.0460069701075553,0.0,0.08189792933970723
0.002,0.0460063181817531,0.00030517578125,0.08147991846783803
0.0024999999999999,0.0460068918764591,0.0006103515625,0.08184727691913483
0.003,0.0460065379738807,0.0006103515625,0.0816188424056116
0.0034999999999999,0.0460063926875591,0.0,0.08152704745000504
0.004,0.0460066683590412,0.00030517578125,0.08170415705398823
0.0044999999999999,0.0460064969956874,0.00030517578125,0.08159393935746317
0.005,0.0460067093372345,0.00030517578125,0.08172938162121934
0.0054999999999999,0.0460063517093658,0.00091552734375,0.08150085741041393
0.006,0.0460063852369785,0.0006103515625,0.08152561692245582
0.0064999999999999,0.0460065118968486,0.0,0.08160886916972009
0.007,0.0460056290030479,0.0006103515625,0.08105311705830222
0.0074999999999999,0.0460048206150531,0.00091552734375,0.08056348304299982
0.008,0.0460018180310726,0.0006103515625,0.07872322077640669
0.0084999999999999,0.0459975562989711,0.00030517578125,0.07619113835185883
0.009,0.0459913723170757,0.0006103515625,0.0726285563031691
0.0094999999999999,0.0459824129939079,0.00030517578125,0.06766340781915846
0.01,0.0459713898599147,0.0006103515625,0.06189831562059089
0.0104999999999999,0.045957863330841,0.00030517578125,0.05528767887996112
0.011,0.0459430776536464,0.0006103515625,0.048680078958771605
0.0114999999999999,0.0459255203604698,0.0,0.04150952760505435
0.012,0.0459069795906543,0.0006103515625,0.0348112461160506
0.0124999999999999,0.0458871610462665,0.0006103515625,0.028537071914827242
0.013,0.0458664484322071,0.00030517578125,0.0228952541925377
0.0134999999999999,0.0458458065986633,0.0006103515625,0.018182521203675143
0.014,0.0458240583539009,0.00091552734375,0.013972570632977114
0.0144999999999999,0.0458028502762317,0.00091552734375,0.010652405903788785
0.015,0.0457809418439865,0.0,0.007809712162199562
0.0154999999999999,0.0457595773041248,0.00091552734375,0.005620971986051294
0.016,0.0457384809851646,0.00030517578125,0.003911193853905523
0.0164999999999999,0.0457169599831104,0.0006103515625,0.0025159352264758727
0.017,0.0456961952149868,0.00091552734375,0.0015218526966969065
0.0174999999999999,0.0456752069294452,0.0,0.0007756424544656798
0.018,0.0456544570624828,0.00030517578125,0.0002915081834141597
0.0184999999999999,0.045633278787136,0.00030517578125,3.3807492650762e-05
0.019,0.0456126667559146,0.001220703125,0.0
0.0194999999999999,0.0455919839441776,0.0006103515625,0.0
0.02,0.0455710887908935,0.00091552734375,0.0
0.0204999999999999,0.0455501340329647,0.0,0.0
0.021,0.0455294847488403,0.00030517578125,0.0
0.0214999999999999,0.0455085597932338,0.0006103515625,0.0
0.022,0.0454874150454998,0.0006103515625,0.0
0.0224999999999999,0.0454667434096336,0.0006103515625,0.0
0.023,0.0454457439482212,0.00030517578125,0.0
0.0234999999999999,0.0454246252775192,0.0006103515625,0.0
0.024,0.0454036667943,0.00030517578125,0.0
0.0244999999999999,0.0453829020261764,0.0006103515625,0.0
0.025,0.045361652970314,0.0,0.0
0.0254999999999999,0.0453407131135463,0.00030517578125,0.0
0.026,0.045319952070713,0.0006103515625,0.0
0.0264999999999999,0.0452989190816879,0.00030517578125,0.0
0.027,0.0452777929604053,0.00030517578125,0.0
0.0274999999999999,0.0452570766210556,0.00030517578125,0.0
0.028,0.0452361218631267,0.0006103515625,0.0
0.0284999999999999,0.045215044170618,0.00030517578125,0.0
0.029,0.0451942607760429,0.00091552734375,0.0
0.0294999999999999,0.0451734401285648,0.0006103515625,0.0
0.03,0.0451521351933479,0.0006103515625,0.0
0.0304999999999999,0.0451312474906444,0.0,0.0
0.031,0.0451105423271656,0.0006103515625,0.0
0.0314999999999999,0.0450892448425293,0.00030517578125,0.0
0.032,0.0450685024261474,0.00030517578125,0.0
0.0324999999999999,0.0450474768877029,0.00030517578125,0.0
0.033,0.0450268797576427,0.00030517578125,0.0
0.0334999999999999,0.0450053662061691,0.00030517578125,0.0
0.034,0.0449847541749477,0.0006103515625,0.0
0.0344999999999999,0.0449642725288867,0.001220703125,0.0
0.035,0.0449427813291549,0.0006103515625,0.0
0.0354999999999999,0.0449224896728992,0.0,0.0
0.036,0.044901430606842,-0.00030517578125,0.0
0.0364999999999999,0.0448801927268505,0.0006103515625,0.0
0.037,0.044859517365694,0.00030517578125,0.0
0.0374999999999999,0.0448388867080211,0.0006103515625,0.0
0.038,0.0448181815445423,0.00091552734375,0.0
0.0384999999999999,0.0447967387735843,0.00030517578125,0.0
0.039,0.0447763316333293,0.0006103515625,0.0
0.0394999999999999,0.0447552986443042,0.00091552734375,0.0
0.04,0.0447343811392784,0.00091552734375,0.0
0.0404999999999999,0.0447136647999286,0.0,0.0
0.041,0.0446926243603229,0.0006103515625,0.0
0.0414999999999999,0.0446716770529747,0.0006103515625,0.0
0.042,0.0446503721177578,0.00030517578125,0.0
0.0424999999999999,0.0446296483278274,0.0006103515625,0.0
0.043,0.0446089543402195,0.00091552734375,0.0
0.0434999999999999,0.0445877760648727,0.0006103515625,0.0
0.044,0.0445671826601028,0.00091552734375,0.0
0.0444999999999999,0.044546153396368,0.0006103515625,0.0
0.045,0.044525146484375,0.0,0.0
0.0454999999999999,0.0445044972002506,0.0006103515625,0.0
0.046,0.0444835051894187,0.0006103515625,0.0
0.0464999999999999,0.044462788850069,0.0,0.0
0.047,0.0444415658712387,0.0006103515625,0.0
0.0474999999999999,0.0444206967949867,0.0006103515625,0.0
0.048,0.0443998910486698,0.00091552734375,0.0
0.0484999999999999,0.0443786866962909,0.0006103515625,0.0
0.049,0.0443582609295845,0.00091552734375,0.0
0.0494999999999999,0.0443371832370758,0.00091552734375,0.0
0.05,0.0443161576986312,0.0006103515625,0.0
0.0504999999999999,0.044295247644186,0.00091552734375,0.0
0.051,0.044274304062128,0.0006103515625,0.0
0.0514999999999999,0.0442533604800701,0.00091552734375,0.0
0.052,0.0442321822047233,0.00030517578125,0.0
0.0524999999999999,0.0442116297781467,-0.00030517578125,0.0
0.053,0.0441904924809932,0.0,0.0
0.0534999999999999,0.0441694632172584,0.0006103515625,0.0
0.054,0.0441487245261669,0.0006103515625,0.0
0.0544999999999999,0.0441277585923671,0.00091552734375,0.0
0.055,0.0441070534288883,0.0006103515625,0.0
0.0554999999999999,0.0440862439572811,0.00091552734375,0.0
0.056,0.0440651886165142,0.0006103515625,0.0
0.0564999999999999,0.0440444462001323,-0.00030517578125,0.0
0.057,0.0440233014523983,0.0006103515625,0.0
0.0574999999999999,0.0440023206174373,0.0006103515625,0.0
0.058,0.0439817868173122,0.00030517578125,0.0
0.0584999999999999,0.0439605861902236,0.0006103515625,0.0
0.059,0.0439399108290672,0.0006103515625,0.0
0.0595,0.0439188256859779,0.001220703125,0.0
0.06,0.0438980460166931,0.00030517578125,0.0
0.0605,0.0438769608736038,0.0,0.0
0.061,0.0438561849296093,0.0,0.0
0.0615,0.0438351333141326,0.00030517578125,0.0
0.062,0.0438140705227851,0.0006103515625,0.0
0.0625,0.0437935404479503,0.0006103515625,0.0
0.0629999999999999,0.0437720082700252,0.0,0.0
0.0635,0.0437514297664165,0.00030517578125,0.0
0.0639999999999999,0.0437304191291332,0.0006103515625,0.0
0.0645,0.043709672987461,0.0,0.0
0.0649999999999999,0.0436889864504337,0.0006103515625,0.0
0.0655,0.0436677783727645,0.00030517578125,0.0
0.0659999999999999,0.0436470136046409,0.00030517578125,0.0
0.0665,0.0436257272958755,0.0,0.0
0.0669999999999999,0.0436047464609146,0.00030517578125,0.0
0.0675,0.0435841158032417,0.00030517578125,0.0
0.0679999999999999,0.0435629822313785,0.00030517578125,0.0
0.0685,0.043542206287384,0.00091552734375,0.0
0.0689999999999999,0.0435210466384887,0.0006103515625,0.0
0.0695,0.0435003563761711,-0.0006103515625,0.0
0.0699999999999999,0.0434792339801788,0.0006103515625,0.0
0.0705,0.0434582754969596,0.00091552734375,0.0
0.0709999999999999,0.0434375666081905,0.00091552734375,0.0
0.0715,0.0434164032340049,0.00030517578125,0.0
0.0719999999999999,0.0433955192565918,0.00030517578125,0.0
0.0725,0.0433747433125972,0.0006103515625,0.0
0.0729999999999999,0.0433536879718303,0.0,0.0
0.0735,0.0433329865336418,0.00030517578125,0.0
0.0739999999999999,0.0433119386434555,0.0,0.0
0.0745,0.0432912670075893,0.0,0.0
0.0749999999999999,0.0432702824473381,0.0,0.0
0.0755,0.0432494431734085,0.0006103515625,0.0
0.0759999999999999,0.0432287380099296,0.00030517578125,0.0
0.0765,0.043207824230194,0.0006103515625,0.0
0.0769999999999999,0.0431867353618145,0.0006103515625,0.0
0.0775,0.0431657098233699,0.00030517578125,0.0
0.0779999999999999,0.0431448332965374,0.00030517578125,0.0
0.0785,0.04312389716506,0.0006103515625,0.0
0.0789999999999999,0.0431030169129371,0.0006103515625,0.0
0.0795,0.0430821552872657,0.00030517578125,0.0
0.0799999999999999,0.0430613160133361,0.0,0.0
0.0805,0.0430403165519237,0.00030517578125,0.0
0.0809999999999999,0.0430194325745105,0.00091552734375,0.0
0.0815,0.0429982654750347,0.0006103515625,0.0
0.0819999999999999,0.0429773516952991,0.00030517578125,0.0
0.0825,0.0429567471146583,0.0006103515625,0.0
0.0829999999999999,0.0429356321692466,0.0,0.0
0.0835,0.0429148077964782,0.00030517578125,0.0
0.0839999999999999,0.0428936369717121,0.0,0.0
0.0845,0.0428731851279735,0.00030517578125,0.0
0.0849999999999999,0.0428520925343036,0.00030517578125,0.0
0.0855,0.0428311266005039,0.0,0.0
0.0859999999999999,0.0428103618323802,0.0006103515625,0.0
0.0865,0.0427892245352268,0.00030517578125,0.0
0.0869999999999999,0.0427682995796203,0.00030517578125,0.0
0.0875,0.0427469983696937,0.00030517578125,0.0
0.0879999999999999,0.0427265055477619,0.0006103515625,0.0
0.0885,0.0427052453160285,0.00030517578125,0.0
0.0889999999999999,0.0426843427121639,0.00030517578125,0.0
0.0895,0.0426633730530738,0.0006103515625,0.0
0.0899999999999999,0.0426422506570816,0.00091552734375,0.0
0.0905,0.0426215790212154,0.00030517578125,0.0
0.0909999999999999,0.0426003597676754,0.00030517578125,0.0
0.0915,0.0425798036158084,0.0,0.0
0.0919999999999999,0.0425592251121997,0.00030517578125,0.0
0.0925,0.0425379164516925,0.00091552734375,0.0
0.0929999999999999,0.042517427355051,0.00091552734375,0.0
0.0935,0.0424960777163505,0.00030517578125,0.0
0.0939999999999999,0.0424752831459045,0.00030517578125,0.0
0.0945,0.0424543470144271,0.00030517578125,0.0
0.0949999999999999,0.0424334108829498,-0.00030517578125,0.0
0.0955,0.0424127839505672,0.00030517578125,0.0
0.0959999999999999,0.0423915423452854,0.0006103515625,0.0
0.0965,0.0423708409070968,0.0006103515625,0.0
0.0969999999999999,0.0423498526215553,0.0006103515625,0.0
0.0975,0.0423289872705936,0.0006103515625,0.0
0.0979999999999999,0.0423082895576953,0.001220703125,0.0
0.0985,0.0422867611050605,0.0006103515625,0.0
0.0989999999999999,0.0422663167119026,0.0006103515625,0.0
0.0995,0.0422447770833969,0.0006103515625,0.0
0.0999999999999999,0.0422241240739822,0.0006103515625,0.0
0.1005,0.0422032438218593,0.0006103515625,0.0
0.1009999999999999,0.0421825125813484,0.00091552734375,0.0
0.1015,0.0421620048582553,0.00091552734375,0.0
0.1019999999999999,0.0421410650014877,-0.00030517578125,0.0
0.1025,0.0421208180487155,0.00091552734375,0.0
0.1029999999999999,0.0421008542180061,0.0006103515625,0.0
0.1035,0.0420819669961929,0.0006103515625,0.0
0.1039999999999999,0.0420638769865036,-0.00030517578125,0.0
0.1045,0.0420470796525478,0.00091552734375,0.0
0.1049999999999999,0.0420321896672248,0.0,0.0
0.1055,0.0420189164578914,0.00030517578125,0.0
0.1059999999999999,0.0420086197555065,0.00030517578125,0.0
0.1065,0.0420006364583969,0.00030517578125,0.0
0.1069999999999999,0.0419956035912036,0.00030517578125,0.0
0.1075,0.0419934950768947,0.00030517578125,0.0
0.1079999999999999,0.0419939681887626,0.00030517578125,0.0
0.1085,0.0419977717101573,0.0006103515625,0.0
0.1089999999999999,0.0420045144855976,0.0006103515625,0.0
0.1095,0.0420135967433452,0.0006103515625,0.0
0.1099999999999999,0.0420256480574607,0.0006103515625,0.0
0.1105,0.0420394353568553,0.00030517578125,0.0
0.1109999999999999,0.0420552119612693,0.0006103515625,0.0
0.1115,0.0420730784535408,0.00030517578125,0.0
0.1119999999999999,0.0420917272567749,0.0,0.0
0.1125,0.0421116016805172,0.0,0.0
0.1129999999999999,0.0421315506100654,0.00091552734375,0.0
0.1135,0.0421523004770278,0.00091552734375,0.0
0.1139999999999999,0.0421733744442462,0.0006103515625,0.0
0.1145,0.042193878442049,0.00091552734375,0.0
0.1149999999999999,0.0422149449586868,0.00030517578125,0.0
0.1155,0.042236004024744,0.0006103515625,0.0
0.1159999999999999,0.0422568693757057,0.0006103515625,0.0
0.1165,0.0422778129577636,0.0,0.0
0.1169999999999999,0.0422985292971134,0.0006103515625,0.0
0.1175,0.0423194393515586,0.0,0.0
0.118,0.0423401668667793,0.0006103515625,0.0
0.1185,0.0423612147569656,0.0,0.0
0.119,0.0423825904726982,0.0,0.0
0.1195,0.0424029715359211,0.0006103515625,0.0
0.12,0.0424242280423641,0.00030517578125,0.0
0.1205,0.042444884777069,0.0006103515625,0.0
0.121,0.0424661301076412,0.0006103515625,0.0
0.1215,0.0424868315458297,0.0006103515625,0.0
0.122,0.0425072833895683,0.00030517578125,0.0
0.1225,0.0425290502607822,0.00030517578125,0.0
0.123,0.0425493530929088,0.00030517578125,0.0
0.1235,0.0425703562796115,0.00030517578125,0.0
0.124,0.0425913259387016,0.0,0.0
0.1245,0.0426120199263095,0.00030517578125,0.0
0.125,0.0426331870257854,0.0006103515625,0.0
0.1254999999999999,0.0426537059247493,0.00030517578125,0.0
0.126,0.0426748916506767,0.00030517578125,0.0
0.1264999999999999,0.042695365846157,0.0006103515625,0.0
0.127,0.0427166856825351,0.00030517578125,0.0
0.1274999999999999,0.0427377372980117,0.00030517578125,0.0
0.128,0.0427586399018764,0.0006103515625,0.0
0.1284999999999999,0.0427796877920627,0.00030517578125,0.0
0.129,0.042800273746252,0.00030517578125,0.0
0.1294999999999999,0.0428214184939861,0.00030517578125,0.0
0.13,0.0428421385586261,0.0006103515625,0.0
0.1304999999999999,0.0428631529211998,-0.00030517578125,0.0
0.131,0.0428844690322876,0.0006103515625,0.0
0.1314999999999999,0.0429049842059612,0.0006103515625,0.0
0.132,0.042926087975502,0.00030517578125,0.0
0.1324999999999999,0.0429469086229801,0.00091552734375,0.0
0.133,0.0429677516222,0.0006103515625,0.0
0.1334999999999999,0.0429886393249034,0.00030517578125,0.0
0.134,0.0430096127092838,0.00091552734375,0.0
0.1344999999999999,0.0430303774774074,0.0006103515625,0.0
0.135,0.0430510826408863,0.00030517578125,0.0
0.1354999999999999,0.0430721715092659,0.00030517578125,0.0
0.136,0.043093167245388,0.0006103515625,0.0
0.1364999999999999,0.0431139171123504,-0.00030517578125,0.0
0.137,0.0431349612772464,0.00030517578125,0.0
0.1374999999999999,0.0431561730802059,0.00030517578125,0.0
0.138,0.0431770235300064,0.00091552734375,0.0
0.1384999999999999,0.0431978553533554,0.00030517578125,0.0
0.139,0.0432185940444469,0.00091552734375,0.0
0.1394999999999999,0.0432396307587623,0.00030517578125,0.0
0.14,0.0432604476809501,0.0006103515625,0.0
0.1404999999999999,0.0432812310755252,0.0006103515625,0.0
0.141,0.0433022677898407,0.0006103515625,0.0
0.1414999999999999,0.0433227606117725,0.00030517578125,0.0
0.142,0.0433439724147319,0.00030517578125,0.0
0.1424999999999999,0.0433649681508541,0.00030517578125,0.0
0.143,0.0433859452605247,0.0,0.0
0.1434999999999999,0.0434063747525215,0.0,0.0
0.144,0.0434274226427078,0.00030517578125,0.0
0.1444999999999999,0.0434487834572792,0.00030517578125,0.0
0.145,0.0434691272675991,0.0,0.0
0.1454999999999999,0.0434905774891376,0.00030517578125,0.0
0.146,0.0435113981366157,0.00030517578125,0.0
0.1464999999999999,0.0435318909585475,0.0006103515625,0.0
0.147,0.0435530990362167,0.0006103515625,0.0
0.1474999999999999,0.0435739308595657,0.0006103515625,0.0
0.148,0.0435950420796871,0.0006103515625,0.0
0.1484999999999999,0.0436158925294876,0.0,0.0
0.149,0.0436369329690933,0.0,0.00016717014905566358
0.1494999999999999,0.0436580553650856,0.0,0.0019874707603499985
0.15,0.0436784997582435,0.00030517578125,0.005591084562936651
0.1504999999999999,0.043699711561203,0.00030517578125,0.010984731694016581
0.151,0.0437204614281654,0.00030517578125,0.017736526094592864
0.1514999999999999,0.0437414832413196,0.0006103515625,0.02582864652629917
0.152,0.0437623038887977,0.0006103515625,0.034956103813198205
0.1524999999999999,0.0437831580638885,0.00091552734375,0.0450770125993667
0.153,0.0438040979206562,0.00091552734375,0.056136172757428396
0.1534999999999999,0.0438246503472328,0.0006103515625,0.06780421604620832
0.154,0.0438458770513534,0.00030517578125,0.08069692976495002
0.1544999999999999,0.04386692866683,0.00030517578125,0.09422354254802759
0.155,0.0438874699175357,0.0006103515625,0.10762120132507558
0.1554999999999999,0.0439088717103004,0.00030517578125,0.12111590649926697
0.156,0.0439293198287487,0.00091552734375,0.1327511722473714
0.1564999999999999,0.0439508035778999,0.00030517578125,0.14385639149520071
0.157,0.0439711734652519,0.00030517578125,0.15260846473886022
0.1574999999999999,0.0439923107624053,0.00091552734375,0.1606890973519341
0.158,0.0440133400261402,0.0006103515625,0.16742118247189855
0.1584999999999999,0.0440339520573616,0.0,0.17269038142516482
0.159,0.0440552644431591,0.00091552734375,0.17765277331001003
0.1594999999999999,0.044075857847929,0.00030517578125,0.18112938367140624
0.16,0.0440969951450824,0.001220703125,0.18444850101829596
0.1604999999999999,0.0441175438463687,0.0006103515625,0.18665098735998278
0.161,0.0441385619342327,0.0006103515625,0.18885365930652137
0.1614999999999999,0.0441593937575817,0.0006103515625,0.19048427980531332
0.162,0.0441803000867366,0.00030517578125,0.19187274684609773
0.1624999999999999,0.044201161712408,0.0006103515625,0.19295923820000968
0.163,0.0442220419645309,0.00030517578125,0.19385569435886996
0.1634999999999999,0.0442429147660732,0.00030517578125,0.1945730533087879
0.164,0.0442641600966453,0.0,0.19548485560401374
0.1644999999999999,0.0442850217223167,0.00091552734375,0.1958828315210731
0.165,0.0443059206008911,0.00030517578125,0.19623608370211432
0.1654999999999999,0.0443269237875938,0.00030517578125,0.19661535931833474
0.166,0.0443477891385555,0.0,0.19679868380812185
0.1664999999999999,0.0443688631057739,0.00030517578125,0.19713386882408632
0.167,0.0443894565105438,0.00030517578125,0.19697533800794295
0.1674999999999999,0.0444105863571167,0.00091552734375,0.19732312448175707
0.168,0.0444315969944,0.00030517578125,0.19749910377692417
0.1684999999999999,0.0444522313773632,0.0,0.19730042550042043
0.169,0.0444735214114189,0.0006103515625,0.19772472575886849
0.1694999999999999,0.0444942153990268,0.00030517578125,0.19753699332485045
0.17,0.0445149950683116,0.0006103515625,0.19745801157804846
0.1704999999999999,0.0445360392332077,0.00030517578125,0.19763013639096091
0.171,0.0445569083094596,0.00091552734375,0.19761061929738757
0.1714999999999999,0.0445778705179691,0.0006103515625,0.19767611404787122
0.172,0.0445984341204166,0.0,0.19736964892044748
0.1725,0.044619645923376,0.00030517578125,0.197697224756526
0.173,0.0446405038237571,0.0006103515625,0.19764371482547857
0.1735,0.0446613207459449,0.0006103515625,0.1975562092888006
0.174,0.0446824729442596,-0.00030517578125,0.19778148034463436
0.1745,0.0447034463286399,0.0006103515625,0.19780126012632104
0.175,0.0447242930531501,-0.00030517578125,0.19769816548033434
0.1755,0.0447451844811439,0.0,0.19764955592721353
0.176,0.044766005128622,0.00030517578125,0.19754161379680385
0.1765,0.0447871312499046,0.00030517578125,0.1977240068991699
0.177,0.044807631522417,0.00030517578125,0.19730587470067015
0.1775,0.0448288172483444,0.0,0.19757183818489757
0.178,0.0448496378958225,0.00030517578125,0.19745661504561618
0.1785,0.0448700375854969,0.00030517578125,0.19697425666925253
0.179,0.0448914766311645,0.00030517578125,0.19750650193877292
0.1795,0.0449119471013546,0.00030517578125,0.19706635330615818
0.18,0.0449332557618618,0.0,0.1974489448136228
0.1805,0.0449537448585033,0.00030517578125,0.19702108207109942
0.181,0.044974710792303,0.0006103515625,0.19709028242773674
0.1815,0.0449954904615879,0.00030517578125,0.19697375951079016
0.182,0.0450163967907428,0.0006103515625,0.19698203885099355
0.1825,0.0450375042855739,0.0,0.19716160250316017
0.183,0.0450580455362796,0.0,0.19679079740428312
