time [s],Lmtc [m],STIM [ ],Fsee [N]
0.0,0.0460067316889762,0.00091552734375,0.1433966749472676
0.0004999999999999,0.0460064522922039,0.0006103515625,0.14322381923069746
0.001,0.0460064858198165,0.00030517578125,0.1432502045712934
0.0014999999999999,0.0460066571831703,0.0006103515625,0.14336092251710977
0.002,0.0460065752267837,0.0,0.14331130063069702
0.0024999999999999,0.0460066497325897,0.00030517578125,0.14336036398798896
0.003,0.0460061393678188,0.00030517578125,0.14304623039423567
0.0034999999999999,0.0460064895451068,0.00030517578125,0.14327403211702958
0.004,0.0460065715014934,0.00030517578125,0.14332849382640547
0.0044999999999999,0.0460062436759471,0.0006103515625,0.14312781427637783
0.005,0.0460065081715583,0.001220703125,0.14329996737576364
0.0054999999999999,0.0460064187645912,0.00030517578125,0.14324758872423426
0.006,0.046006616204977,0.00030517578125,0.14337431912337592
0.0064999999999999,0.0460063368082046,0.00030517578125,0.14320247831327457
0.007,0.0460057593882083,0.00091552734375,0.142852394775216
0.0074999999999999,0.0460041426122188,0.0,0.14187625897501044
0.008,0.0460007935762405,0.0006103515625,0.13987679799758304
0.0084999999999999,0.0459962449967861,0.0006103515625,0.13723804148087007
0.009,0.0459888204932212,0.00030517578125,0.13300494137152996
0.0094999999999999,0.0459791757166385,0.0006103515625,0.12771137429689158
0.01,0.045966487377882,0.00030517578125,0.12102360273522522
0.0104999999999999,0.0459513999521732,0.00030517578125,0.11352683100570844
0.011,0.0459337458014488,0.00030517578125,0.10533874673220568
0.0114999999999999,0.0459130518138408,0.00030517578125,0.09649196439060335
0.012,0.0458898544311523,0.00030517578125,0.087594363752689
0.0124999999999999,0.0458648353815078,0.00030517578125,0.07928867212448297
0.013,0.0458379425108432,0.0006103515625,0.07182600505145874
0.0134999999999999,0.045809231698513,0.0006103515625,0.06545793068359575
0.014,0.0457790121436119,0.0006103515625,0.060391785233449
0.0144999999999999,0.0457479059696197,0.00030517578125,0.05665412560104877
0.015,0.045716106891632,0.00091552734375,0.053880084269391566
0.0154999999999999,0.0456835180521011,0.0,0.0516065558565192
0.016,0.0456508621573448,0.0006103515625,0.049765053332517545
0.0164999999999999,0.0456172786653041,0.00091552734375,0.047895013638489595
0.017,0.045584350824356,0.0006103515625,0.04640735694328504
0.0174999999999999,0.0455509759485721,0.0006103515625,0.044823209632241276
0.018,0.0455177724361419,0.0,0.04335129786181362
0.0184999999999999,0.0454842895269393,0.00030517578125,0.0418276443205694
0.019,0.0454506166279315,0.0,0.04030674769943503
0.0194999999999999,0.0454177856445312,0.0,0.03904315657489606
0.02,0.0453843288123607,0.0,0.03757025629420053
0.0204999999999999,0.0453513227403163,0.00091552734375,0.036249377391893045
0.021,0.0453180000185966,0.00091552734375,0.03483879397299343
0.0214999999999999,0.0452847629785537,0.00030517578125,0.03348119376151175
0.022,0.045251540839672,0.0006103515625,0.03214521631509129
0.0224999999999999,0.0452185496687889,0.00030517578125,0.03087226018141855
0.023,0.0451852791011333,0.0006103515625,0.029533519575857804
0.0234999999999999,0.0451519191265106,0.00091552734375,0.028206772278764336
0.024,0.0451185591518878,0.0006103515625,0.026910513564960752
0.0244999999999999,0.0450850501656532,0.0,0.025610035879569375
0.025,0.0450518056750297,0.00030517578125,0.02439599846571456
0.0254999999999999,0.0450186543166637,0.00030517578125,0.02320438525933895
0.026,0.0449851602315902,0.0006103515625,0.02195179151774844
0.0264999999999999,0.0449519343674182,0.00030517578125,0.020784955014600405
0.027,0.0449186339974403,0.001220703125,0.01961358281204145
0.0274999999999999,0.0448853857815265,0.00030517578125,0.018469643724419667
0.028,0.0448523238301277,0.0,0.01737637084447083
0.0284999999999999,0.0448188111186027,0.00030517578125,0.016208104353194835
0.029,0.0447857975959777,0.0006103515625,0.015165379804140079
0.0294999999999999,0.0447524115443229,0.001220703125,0.014064614929821908
0.03,0.0447189472615718,0.00030517578125,0.012981329589521811
0.0304999999999999,0.0446857921779155,0.00030517578125,0.011979389173712253
0.031,0.0446522161364555,0.0,0.010926627052843332
0.0314999999999999,0.0446190126240253,0.00030517578125,0.009966227864997517
0.032,0.0445856899023056,0.0,0.009006817780954884
0.0324999999999999,0.0445524044334888,-0.00030517578125,0.008079100183594446
0.033,0.0445191599428653,0.0006103515625,0.0071835306102739456
0.0334999999999999,0.0444859638810157,0.0006103515625,0.006321334152774202
0.034,0.0444530248641967,0.00030517578125,0.005517955216410094
0.0344999999999999,0.0444192551076412,0.0006103515625,0.0046520204335426885
0.035,0.0443864502012729,0.0006103515625,0.003936523276024253
0.0354999999999999,0.0443528220057487,0.0006103515625,0.0031771645822001255
0.036,0.0443195477128028,0.00030517578125,0.0025057937441258647
0.0364999999999999,0.0442865006625652,0.0006103515625,0.001905133293821289
0.037,0.0442530214786529,0.00091552734375,0.0013367060827209763
0.0374999999999999,0.0442199520766735,0.00030517578125,0.0008677615934001762
0.038,0.0441864244639873,0.0006103515625,0.00046504298828194135
0.0384999999999999,0.0441536121070385,0.0,0.000190304046628153
0.039,0.0441204085946083,0.0,2.661875697236474e-05
0.0394999999999999,0.0440868139266967,0.00030517578125,0.0
0.04,0.0440536253154277,0.0006103515625,0.0
0.0404999999999999,0.0440204665064811,0.0006103515625,0.0
0.041,0.0439869463443756,0.0006103515625,0.0
0.0414999999999999,0.0439539179205894,0.0006103515625,0.0
0.042,0.0439205691218376,0.0006103515625,0.0
0.0424999999999999,0.0438875779509544,0.00030517578125,0.0
0.043,0.043853934854269,0.0,0.0
0.0434999999999999,0.0438208989799022,0.00030517578125,0.0
0.044,0.0437875688076019,0.00030517578125,0.0
0.0444999999999999,0.0437540635466575,-0.00030517578125,0.0
0.045,0.0437211990356445,0.00030517578125,0.0
0.0454999999999999,0.0436876490712165,0.0006103515625,0.0
0.046,0.0436545647680759,0.0006103515625,0.0
0.0464999999999999,0.0436211265623569,0.0006103515625,0.0
0.047,0.0435879305005073,0.0006103515625,0.0
0.0474999999999999,0.0435547679662704,0.00091552734375,0.0
0.048,0.0435210913419723,-0.00030517578125,0.0
0.0484999999999999,0.0434880331158638,-0.00030517578125,0.0
0.049,0.0434544458985328,0.00030517578125,0.0
0.0494999999999999,0.0434209741652011,0.0006103515625,0.0
0.05,0.0433883219957351,0.0,0.0
0.0504999999999999,0.0433548875153064,0.00030517578125,0.0
0.051,0.0433217249810695,0.00030517578125,0.0
0.0514999999999999,0.0432885289192199,0.0006103515625,0.0
0.052,0.0432555377483367,0.0006103515625,0.0
0.0524999999999999,0.0432219356298446,0.00030517578125,0.0
0.053,0.043188638985157,0.0006103515625,0.0
0.0534999999999999,0.0431556440889835,0.00030517578125,0.0
0.054,0.0431220047175884,0.0006103515625,0.0
0.0544999999999999,0.0430886894464492,0.00030517578125,0.0
0.055,0.0430555343627929,0.00030517578125,0.0
0.0554999999999999,0.0430224537849426,0.0006103515625,0.0
0.056,0.0429889932274818,0.00030517578125,0.0
0.0564999999999999,0.0429555959999561,0.00030517578125,0.0
0.057,0.0429228097200393,0.00030517578125,0.0
0.0574999999999999,0.0428892038762569,0.0006103515625,0.0
0.058,0.0428558625280857,0.00030517578125,0.0
0.0584999999999999,0.0428228639066219,0.0006103515625,0.0
0.059,0.0427892506122589,0.0,0.0
0.0595,0.0427561737596988,0.00030517578125,0.0
0.06,0.0427226535975933,0.0006103515625,0.0
0.0605,0.0426895953714847,0.0006103515625,0.0
0.061,0.0426558777689933,0.00030517578125,0.0
0.0615,0.0426226034760475,0.00030517578125,0.0
0.062,0.0425896905362606,0.0006103515625,0.0
0.0625,0.042556170374155,0.00030517578125,0.0
0.0629999999999999,0.0425230786204338,0.0006103515625,0.0
0.0635,0.0424897074699401,0.00091552734375,0.0
0.0639999999999999,0.0424565449357032,0.00030517578125,0.0
0.0645,0.0424233339726924,0.00091552734375,0.0
0.0649999999999999,0.0423902720212936,0.00030517578125,0.0
0.0655,0.0423575080931186,0.001220703125,0.0
0.0659999999999999,0.0423247665166854,0.0006103515625,0.0
0.0665,0.0422928296029567,0.0,0.0
0.0669999999999999,0.042260967195034,0.0,0.0
0.0675,0.0422301851212978,0.0006103515625,0.0
0.0679999999999999,0.0422003678977489,0.0006103515625,0.0
0.0685,0.042171873152256,0.00030517578125,0.0
0.0689999999999999,0.0421448610723018,0.0006103515625,0.0
0.0695,0.0421186499297618,0.00030517578125,0.0
0.0699999999999999,0.042094949632883,0.00030517578125,0.0
0.0705,0.042073406279087,0.0006103515625,0.0
0.0709999999999999,0.0420534461736679,0.0,0.0
0.0715,0.0420366711914539,0.0,0.0
0.0719999999999999,0.0420224107801914,0.0006103515625,0.0
0.0725,0.0420106723904609,0.00030517578125,0.0
0.0729999999999999,0.0420025512576103,-0.00030517578125,0.0
0.0735,0.0419966354966163,0.0006103515625,0.0
0.0739999999999999,0.0419940203428268,0.0006103515625,0.0
0.0745,0.0419938787817955,0.0,0.0
0.0749999999999999,0.0419964343309402,0.00030517578125,0.0
0.0755,0.0420007556676864,0.00091552734375,0.0
0.0759999999999999,0.0420061945915222,0.00091552734375,0.0
0.0765,0.0420131795108318,0.00091552734375,0.0
0.0769999999999999,0.042020495980978,0.00091552734375,0.0
0.0775,0.0420282110571861,0.0006103515625,0.0
0.0779999999999999,0.0420358851552009,0.00091552734375,0.0
0.0785,0.0420436821877956,0.00030517578125,0.0
0.0789999999999999,0.0420512855052948,0.00030517578125,0.0
0.0795,0.0420585125684738,0.00030517578125,0.0
0.0799999999999999,0.042066391557455,-0.00030517578125,0.0
0.0805,0.0420735888183116,0.00030517578125,0.0
0.0809999999999999,0.0420808605849742,0.0,0.0
0.0815,0.0420884676277637,0.00030517578125,0.0
0.0819999999999999,0.0420955792069435,0.00030517578125,0.0
0.0825,0.0421033315360546,0.0,0.0
0.0829999999999999,0.0421107485890388,0.00030517578125,0.0
0.0835,0.0421185716986656,0.0,0.0
0.0839999999999999,0.0421261712908744,0.00030517578125,0.0
0.0845,0.0421334020793437,0.0,0.0
0.0849999999999999,0.0421415083110332,0.00030517578125,0.0
0.0855,0.0421487838029861,0.00091552734375,0.0
0.0859999999999999,0.0421566888689994,0.0,0.0
0.0865,0.0421640127897262,0.00030517578125,0.0
0.0869999999999999,0.0421720929443836,0.00091552734375,0.0
0.0875,0.0421795435249805,0.00091552734375,0.0
0.0879999999999999,0.0421866402029991,0.00030517578125,0.0
0.0885,0.0421948321163654,0.00030517578125,0.0
0.0889999999999999,0.0422020033001899,0.0,0.0
0.0895,0.0422096475958824,0.00030517578125,0.0
0.0899999999999999,0.0422171764075756,0.00030517578125,0.0
0.0905,0.0422246158123016,0.0006103515625,0.0
0.0909999999999999,0.0422324240207672,0.00030517578125,0.0
0.0915,0.042240060865879,0.0,0.0
0.0919999999999999,0.042247574776411,0.00091552734375,0.0
0.0925,0.0422549098730087,0.0,0.0
0.0929999999999999,0.0422623567283153,0.0006103515625,0.0
0.0935,0.0422699563205242,0.00030517578125,0.0
0.0939999999999999,0.0422775782644748,0.0,0.0
0.0945,0.0422852784395217,0.00030517578125,0.0
0.0949999999999999,0.0422928519546985,0.0,0.0
0.0955,0.0423002056777477,0.0006103515625,0.0
0.0959999999999999,0.0423080585896968,0.00030517578125,0.0
0.0965,0.0423154570162296,0.0006103515625,0.0
0.0969999999999999,0.0423231981694698,0.0006103515625,0.0
0.0975,0.0423307791352272,0.0,0.0
0.0979999999999999,0.0423385016620159,-0.00030517578125,0.0
0.0985,0.042346391826868,0.0,0.0
0.0989999999999999,0.0423535294830799,0.0006103515625,0.0
0.0995,0.0423610359430313,0.0,0.0
0.0999999999999999,0.0423687733709812,0.0,0.0
0.1005,0.0423765182495117,0.0,0.0
0.1009999999999999,0.0423838607966899,0.00030517578125,0.0
0.1015,0.0423913598060607,0.00091552734375,0.0
0.1019999999999999,0.0423994921147823,0.0006103515625,0.0
0.1025,0.0424065664410591,0.00030517578125,0.0
0.1029999999999999,0.0424145385622978,0.0,0.0
0.1035,0.0424221083521842,0.0,0.0
0.1039999999999999,0.0424296073615551,0.00091552734375,0.0
0.1045,0.0424371361732482,0.0,0.0
0.1049999999999999,0.0424444377422332,0.0006103515625,0.0
0.1055,0.0424523577094078,0.00030517578125,0.0
0.1059999999999999,0.0424596481025218,0.0,0.0
0.1065,0.0424673408269882,0.0006103515625,0.0
0.1069999999999999,0.0424746237695217,0.00091552734375,0.0
0.1075,0.0424823015928268,0.00030517578125,0.0
0.1079999999999999,0.0424899943172931,0.0006103515625,0.0
0.1085,0.0424975901842117,0.00030517578125,0.0
0.1089999999999999,0.0425051897764205,0.0006103515625,0.0
0.1095,0.0425126701593399,0.0,0.0
0.1099999999999999,0.042520485818386,0.00091552734375,0.0
0.1105,0.0425279736518859,0.00030517578125,0.0
0.1109999999999999,0.0425354391336441,0.00091552734375,0.0
0.1115,0.0425431989133358,0.00030517578125,0.0
0.1119999999999999,0.0425505600869655,0.0006103515625,0.0
0.1125,0.0425582192838192,0.00030517578125,0.0
0.1129999999999999,0.0425659604370594,0.0006103515625,0.0
0.1135,0.0425732694566249,0.00030517578125,0.0
0.1139999999999999,0.0425808578729629,0.001220703125,5.203955271778056e-05
0.1145,0.0425886064767837,0.0006103515625,0.0003827883979568558
0.1149999999999999,0.0425962507724761,0.0006103515625,0.0010068048339700755
0.1155,0.042603425681591,0.0006103515625,0.0018799880550444846
0.1159999999999999,0.0426109358668327,0.0006103515625,0.003033521593106636
0.1165,0.042618453502655,0.0006103515625,0.004432434757781224
0.1169999999999999,0.0426259189844131,0.0006103515625,0.0060498030269913365
0.1175,0.0426337718963623,0.00030517578125,0.007926574063984192
0.118,0.0426413379609584,0.0006103515625,0.009951326343178968
0.1185,0.0426487475633621,0.0006103515625,0.012113772117737513
0.119,0.0426565296947956,0.00030517578125,0.01449287389068156
0.1195,0.0426640510559082,0.0,0.01695300058983721
0.12,0.0426717326045036,0.00030517578125,0.019564092604101486
0.1205,0.042679488658905,0.0006103515625,0.022297895673257084
0.121,0.042687214910984,0.0,0.025117812802212657
0.1215,0.0426945388317108,0.00030517578125,0.027909739628085642
0.122,0.0427020527422428,0.00030517578125,0.030820683822050603
0.1225,0.0427098833024501,0.00091552734375,0.03388731346657944
0.123,0.0427171811461448,0.00030517578125,0.03684519906604522
0.1235,0.0427246466279029,0.00030517578125,0.039900936275445754
0.124,0.0427325628697872,0.0,0.04315085693500033
0.1245,0.0427397787570953,0.00030517578125,0.04619709514079917
0.125,0.0427476018667221,0.00030517578125,0.04949293743194264
0.1254999999999999,0.0427550375461578,0.00030517578125,0.052676584585569175
0.126,0.0427630320191383,0.00091552734375,0.05610226831049296
0.1264999999999999,0.0427703857421875,0.00091552734375,0.0593017560697276
0.127,0.0427780002355575,0.00030517578125,0.06262714180312925
0.1274999999999999,0.0427857786417007,0.0006103515625,0.06604199101508566
0.128,0.042792797088623,0.00030517578125,0.06914826146252039
0.1284999999999999,0.0428007841110229,0.0,0.07269595918300373
0.129,0.0428081899881362,0.00030517578125,0.07601895733168702
0.1294999999999999,0.0428157597780227,-0.00030517578125,0.0794516089586752
0.13,0.0428231805562973,0.0,0.08283796404976025
0.1304999999999999,0.0428309254348278,0.00030517578125,0.08638968041465397
0.131,0.0428387932479381,0.0,0.08999625805207553
0.1314999999999999,0.0428459681570529,0.0006103515625,0.09322955504155564
0.132,0.0428537875413894,0.0006103515625,0.09673687779019047
0.1324999999999999,0.0428612679243087,0.0,0.09998953350197294
0.133,0.0428687557578086,0.0006103515625,0.10313960575343357
0.1334999999999999,0.0428763777017593,0.0006103515625,0.1062278351606135
0.134,0.0428839847445488,0.0006103515625,0.10915150218377838
0.1344999999999999,0.0428918898105621,0.0006103515625,0.11206118351274966
0.135,0.0428992770612239,0.00030517578125,0.11449740281583262
0.1354999999999999,0.0429069660604,0.0,0.11691697842425529
0.136,0.042914543300867,0.0006103515625,0.11908387606802562
0.1364999999999999,0.0429217256605625,0.00030517578125,0.12085125058507175
0.137,0.0429293513298034,0.00091552734375,0.12270840327140396
0.1374999999999999,0.0429370775818824,0.0006103515625,0.1244523931740812
0.138,0.0429448708891868,0.00030517578125,0.12607086364226702
0.1384999999999999,0.0429522842168808,0.0006103515625,0.1273209920664019
0.139,0.0429597571492195,0.0006103515625,0.12848241982370973
0.1394999999999999,0.0429674126207828,0.0006103515625,0.1296322514401686
0.14,0.0429747588932514,0.0,0.1304908237154667
0.1404999999999999,0.0429824590682983,0.00030517578125,0.13146436990712207
0.141,0.0429900400340557,0.0006103515625,0.1322705908572626
0.1414999999999999,0.0429970994591712,0.0006103515625,0.13269561009332168
0.142,0.0430050417780876,0.00030517578125,0.13358598463879265
0.1424999999999999,0.0430125631392002,0.00091552734375,0.1341423173642872
0.143,0.0430202335119247,0.0,0.13472846091219687
0.1434999999999999,0.0430277101695537,0.0,0.13514349791165728
0.144,0.0430352836847305,0.0006103515625,0.13557383563795392
0.1444999999999999,0.0430430136620998,0.00030517578125,0.13605252775130347
0.145,0.0430503971874713,0.00030517578125,0.1362825085515627
0.1454999999999999,0.0430583134293556,0.0006103515625,0.13680163439678036
0.146,0.0430656448006629,0.00030517578125,0.13692844019234618
0.1464999999999999,0.0430731810629367,0.00030517578125,0.1371655956187524
0.147,0.0430809929966926,0.00030517578125,0.13754254935529536
0.1474999999999999,0.0430883057415485,0.00091552734375,0.13759223929934702
0.148,0.0430962964892387,0.0,0.13803785384134112
0.1484999999999999,0.0431035123765468,0.00030517578125,0.13798724088192021
0.149,0.0431116558611393,0.001220703125,0.13849045590343206
0.1494999999999999,0.0431188568472862,0.00091552734375,0.13839451451226362
0.15,0.0431260429322719,0.0006103515625,0.13830815605595587
0.1504999999999999,0.0431341528892517,0.0006103515625,0.13877742826240685
0.151,0.0431413911283016,0.0006103515625,0.13869040887506578
0.1514999999999999,0.0431489050388336,0.0,0.13878129559698887
0.152,0.0431566871702671,0.00030517578125,0.13902581763332378
0.1524999999999999,0.0431639477610588,-0.0006103515625,0.13894433489116859
0.153,0.0431719124317169,0.0006103515625,0.13929170679738337
0.1534999999999999,0.0431793294847011,0.00030517578125,0.13928643236282448
0.154,0.0431869700551033,0.0006103515625,0.1394203226636735
0.1544999999999999,0.0431943945586681,0.00030517578125,0.13942035499090447
0.155,0.0432017929852008,0.00030517578125,0.13941294262130896
0.1554999999999999,0.0432097427546978,0.0006103515625,0.13973673785384552
0.156,0.0432171784341335,0.0006103515625,0.13972954016567105
0.1564999999999999,0.0432249382138252,0.0,0.13992212534917942
0.157,0.0432320274412632,0.00030517578125,0.13970717266162705
0.1574999999999999,0.0432401672005653,0.00030517578125,0.14014128849303606
0.158,0.0432472340762615,0.0006103515625,0.13990351895172767
0.1584999999999999,0.0432550087571144,0.00030517578125,0.14011619440800435
0.159,0.0432626791298389,0.00091552734375,0.1402512396644252
0.1594999999999999,0.0432699508965015,0.0,0.1401460306710402
0.16,0.0432772897183895,0.0006103515625,0.1401009715873522
0.1604999999999999,0.0432852655649185,0.00030517578125,0.1404424167022343
0.161,0.0432929545640945,0.0,0.14058418769363332
0.1614999999999999,0.0433004014194011,0.0,0.1405765556879714
0.162,0.043307926505804,0.0006103515625,0.14062454832804466
0.1624999999999999,0.043315302580595,0.0006103515625,0.14058775661212738
0.163,0.0433230362832546,0.00030517578125,0.1407744193951748
0.1634999999999999,0.0433305911719799,0.0,0.14084286878952368
0.164,0.0433383248746395,0.00091552734375,0.141017560688496
0.1644999999999999,0.0433457158505916,0.0006103515625,0.14097970986772126
0.165,0.0433532409369945,0.0006103515625,0.1410343790042864
0.1654999999999999,0.0433607809245586,0.0006103515625,0.14110069283490964
0.166,0.0433681942522525,0.00030517578125,0.141093880077339
0.1664999999999999,0.0433758497238159,0.00030517578125,0.14123916614700338
0.167,0.0433835089206695,-0.00030517578125,0.1413790504257569
0.1674999999999999,0.0433912128210067,0.0,0.14153942336611466
0.168,0.043398343026638,0.00030517578125,0.1413522455506078
0.1684999999999999,0.0434061624109745,0.0006103515625,0.14160221609039958
0.169,0.0434135794639587,-0.00030517578125,0.14159520146014012
0.1694999999999999,0.0434211231768131,0.00030517578125,0.1416728163986277
