time [s],Lmtc [m],STIM [ ],Fsee [N]
0.0,0.0480149053037166,0.00091552734375,0.23867756917145228
0.0004999999999999,0.0480146631598472,0.00030517578125,0.23848747862248976
0.001,0.0480149313807487,0.00030517578125,0.23871121934994016
0.0014999999999999,0.0480150207877159,0.0,0.2387809273564567
0.002,0.0480144843459129,0.0006103515625,0.23835415581101513
0.0024999999999999,0.0480150058865547,0.0006103515625,0.2387865989138744
0.003,0.0480147898197174,0.00030517578125,0.23861078007895922
0.0034999999999999,0.0480146370828151,0.00091552734375,0.23849564574537774
0.004,0.0480148158967494,0.001220703125,0.2386484009508202
0.0044999999999999,0.048014722764492,0.0006103515625,0.23857629310935288
0.005,0.0480150543153286,0.00030517578125,0.2388439919293969
0.0054999999999999,0.0480146408081054,0.0006103515625,0.238509145958089
0.006,0.0480148941278457,0.0,0.23871960141500004
0.0064999999999999,0.0480150431394577,0.0006103515625,0.23883625917144286
0.007,0.0480145253241062,0.00091552734375,0.2384207832266406
0.0074999999999999,0.0480148792266845,0.00030517578125,0.23871632404592236
0.008,0.0480147004127502,0.00030517578125,0.23857316540653106
0.0084999999999999,0.0480150952935218,0.0,0.23889131217517412
0.009,0.0480147339403629,0.0006103515625,0.238596082468049
0.0094999999999999,0.0480146184563636,0.0006103515625,0.2385108405000425
0.01,0.0480148419737815,0.00091552734375,0.2386974433773428
0.0104999999999999,0.0480137057602405,0.00030517578125,0.23781074038929653
0.011,0.048012226819992,0.00030517578125,0.2367264703270079
0.0114999999999999,0.0480086207389831,0.00030517578125,0.2340945861222302
0.012,0.0480029210448265,0.0006103515625,0.23010583711989924
0.0124999999999999,0.047995276749134,0.00030517578125,0.22509995588492984
0.013,0.0479845665395259,0.00091552734375,0.21851038218530308
0.0134999999999999,0.0479711480438709,0.00030517578125,0.21116698427775668
0.014,0.0479554645717144,0.0006103515625,0.20408172615764736
0.0144999999999999,0.0479368716478347,0.00030517578125,0.19762961996616055
0.015,0.0479165613651275,0.00030517578125,0.19312621996949514
0.0154999999999999,0.0478944964706897,0.00030517578125,0.18992361715215736
0.016,0.0478710681200027,0.0006103515625,0.18737952807534025
0.0164999999999999,0.0478466153144836,0.00030517578125,0.18511238498694654
0.017,0.0478212274610996,0.00030517578125,0.18287423182298942
0.0174999999999999,0.0477961339056491,0.00030517578125,0.18104817426366335
0.018,0.047770332545042,0.0,0.17895216759418534
0.0184999999999999,0.0477448403835296,-0.00030517578125,0.17713984801744107
0.019,0.047719519585371,0.00030517578125,0.17534604500124468
0.0194999999999999,0.0476942472159862,0.0,0.1735398740986003
0.02,0.0476696193218231,0.0006103515625,0.17194860382391908
0.0204999999999999,0.0476443655788898,0.0006103515625,0.16997719397180783
0.021,0.0476198755204677,0.00030517578125,0.16841592541389144
0.0214999999999999,0.0475951880216598,0.00030517578125,0.16663584272101595
0.022,0.0475704558193683,0.001220703125,0.16486057500831544
0.0224999999999999,0.0475458726286888,0.00030517578125,0.16317170950276236
0.023,0.0475209206342697,0.0006103515625,0.16130799700299
0.0234999999999999,0.0474963039159774,0.00030517578125,0.15966186437283858
0.024,0.0474716834723949,0.00030517578125,0.1579609470217249
0.0244999999999999,0.0474472679197788,0.00091552734375,0.15634425068469382
0.025,0.0474222414195537,0.0006103515625,0.15443627254637712
0.0254999999999999,0.0473974049091339,0.0006103515625,0.1527479521614805
0.026,0.0473726391792297,0.00030517578125,0.1510785900994946
0.0264999999999999,0.0473478436470031,0.00030517578125,0.1493865639952712
0.027,0.0473231188952922,0.0006103515625,0.14772521913502926
0.0274999999999999,0.0472987480461597,0.0,0.1462023479220597
0.028,0.0472741052508354,0.0,0.144497757074164
0.0284999999999999,0.0472493506968021,0.00030517578125,0.14279488438069315
0.029,0.0472243539988994,0.0006103515625,0.14103247683866765
0.0294999999999999,0.0471998639404773,0.0006103515625,0.13956003306346615
0.03,0.0471752695739269,0.0006103515625,0.137953931790219
0.0304999999999999,0.0471501983702182,0.00030517578125,0.13614964583303837
0.031,0.0471257716417312,0.00030517578125,0.13473047733812007
0.0314999999999999,0.0471008643507957,0.0006103515625,0.13300055758682044
0.032,0.0470758117735385,0.00030517578125,0.1312988354686584
0.0324999999999999,0.0470514707267284,0.0,0.1299494539471957
0.033,0.0470267236232757,0.0,0.1283000271633052
0.0334999999999999,0.0470019243657588,0.0006103515625,0.1266872212266704
0.034,0.0469770953059196,0.0006103515625,0.12509527410383714
0.0344999999999999,0.046952411532402,0.0006103515625,0.12358536208696011
0.035,0.0469282492995262,0.0006103515625,0.12226065228528946
0.0354999999999999,0.0469029992818832,0.00030517578125,0.12038590399708797
0.036,0.0468782000243663,0.00030517578125,0.1189058227197656
0.0364999999999999,0.0468537472188472,0.00030517578125,0.11752194337696437
0.037,0.0468290746212005,0.00030517578125,0.1159841456214154
0.0374999999999999,0.0468044020235538,0.00030517578125,0.11447099381264744
0.038,0.0467796623706817,0.0006103515625,0.11294903251356889
0.0384999999999999,0.0467549599707126,0.0,0.11146354457620616
0.039,0.0467302165925502,0.00030517578125,0.10997327107063211
0.0394999999999999,0.046706024557352,0.00030517578125,0.10869561520998701
0.04,0.046681135892868,0.0,0.10706368802134456
0.0404999999999999,0.0466560088098049,0.0,0.1054541453200906
0.041,0.0466316863894462,0.00030517578125,0.10421822716725107
0.0414999999999999,0.0466066822409629,0.001220703125,0.10262585012078852
0.042,0.0465820655226707,0.00030517578125,0.10126888561298587
0.0424999999999999,0.04655721783638,0.00091552734375,0.09979069840320974
0.043,0.0465326197445392,0.00030517578125,0.09844147064783197
0.0434999999999999,0.0465082898736,0.00030517578125,0.09715625319597182
0.044,0.0464832112193107,0.0006103515625,0.09555133526642318
0.0444999999999999,0.0464587844908237,0.00030517578125,0.09429482751987758
0.045,0.0464340858161449,0.00030517578125,0.09287818751797994
0.0454999999999999,0.0464093424379825,0.0006103515625,0.09147281870646945
0.046,0.0463848784565925,0.0,0.09018738364251318
0.0464999999999999,0.0463603250682354,0.00030517578125,0.08884207086522337
0.047,0.0463356375694274,0.0006103515625,0.0874531578572919
0.0474999999999999,0.0463110134005546,0.00030517578125,0.08611790924479591
0.048,0.0462862253189086,0.0006103515625,0.0847262737760071
0.0484999999999999,0.0462618432939052,0.00030517578125,0.08352505583981785
0.049,0.0462365709245204,0.0006103515625,0.08194842431532882
0.0494999999999999,0.0462122149765491,0.0006103515625,0.08082914262025774
0.05,0.0461872965097427,0.00091552734375,0.07942488639030076
0.0504999999999999,0.0461625903844833,0.0,0.07814850795037609
0.051,0.0461380518972873,0.0006103515625,0.076927949950258
0.0514999999999999,0.0461130142211914,0.0006103515625,0.0755111482310185
0.052,0.0460889562964439,0.0,0.07450611517344717
0.0524999999999999,0.0460639372467994,0.0006103515625,0.07305675971125439
0.053,0.0460395403206348,0.00091552734375,0.0719188178636433
0.0534999999999999,0.046014841645956,0.0006103515625,0.07063143077999089
0.054,0.0459899678826332,0.0,0.06931532932092431
0.0544999999999999,0.0459655560553073,0.0,0.0681947505693692
0.055,0.0459402352571487,0.00030517578125,0.06673506018368718
0.0554999999999999,0.0459159761667251,0.0006103515625,0.06573234630996289
0.056,0.0458911210298538,0.0006103515625,0.06445467551834047
0.0564999999999999,0.0458664074540138,0.00030517578125,0.06326123978874432
0.057,0.0458418615162372,0.0,0.06212690043715705
0.0574999999999999,0.0458171516656875,0.0006103515625,0.06092653988120184
0.058,0.0457923598587513,0.00091552734375,0.059718299730150956
0.0584999999999999,0.0457678511738777,0.0006103515625,0.05862100409629699
0.059,0.0457429587841033,0.00030517578125,0.057386908889845385
0.0595,0.0457185171544551,-0.00030517578125,0.05633191394470268
0.06,0.045693676918745,0.0006103515625,0.05512572075258817
0.0605,0.0456688590347766,0.00091552734375,0.05396321972515936
0.061,0.0456445962190628,0.00091552734375,0.05298876265817472
0.0615,0.0456194840371608,0.0006103515625,0.05170936392163538
0.062,0.0455948896706104,0.0006103515625,0.05065520051712274
0.0625,0.0455704443156719,0.0,0.049631696286219204
0.0629999999999999,0.0455458089709281,0.001220703125,0.04853422660075125
0.0635,0.0455210655927658,0.0006103515625,0.04741836067341534
0.0639999999999999,0.0454962104558944,0.0006103515625,0.04628891286650143
0.0645,0.0454719103872776,0.0006103515625,0.04535228115656339
0.0649999999999999,0.0454469174146652,-0.00030517578125,0.04417846588289241
0.0655,0.0454222001135349,0.0,0.04313531096679208
0.0659999999999999,0.0453974902629852,0.0006103515625,0.04210016033071091
0.0665,0.045372761785984,0.00030517578125,0.04106646952084866
0.0669999999999999,0.0453479588031768,0.0006103515625,0.040021175723676694
0.0675,0.0453232191503047,0.00030517578125,0.03900936274645072
0.0679999999999999,0.0452984012663364,0.00030517578125,0.03798177116900817
0.0685,0.0452739894390106,0.00030517578125,0.03707959886791197
0.0689999999999999,0.0452492423355579,0.00030517578125,0.03606424403179874
0.0695,0.0452248230576515,0.0,0.035154482800212446
0.0699999999999999,0.0451998747885227,0.00030517578125,0.034095503811393264
0.0705,0.0451747998595237,0.0,0.03304028881724451
0.0709999999999999,0.0451506003737449,0.00030517578125,0.03224618142737024
0.0715,0.0451255179941654,0.00030517578125,0.0311871148774844
0.0719999999999999,0.0451011210680007,0.0006103515625,0.030343860268670107
0.0725,0.0450760461390018,0.00030517578125,0.029314045156360772
0.0729999999999999,0.0450513921678066,0.00030517578125,0.02842470578857889
0.0735,0.0450269132852554,0.00091552734375,0.02757784926577801
0.0739999999999999,0.0450018048286438,0.00091552734375,0.026573498170435046
0.0745,0.0449771881103515,0.0006103515625,0.025722324821120458
0.0749999999999999,0.0449527502059936,0.0006103515625,0.02490931753736767
0.0755,0.0449280515313148,0.0,0.024027177884704366
0.0759999999999999,0.0449035093188285,0.00030517578125,0.023191711120905217
0.0765,0.0448790937662124,0.0006103515625,0.02238661928564653
0.0769999999999999,0.0448543913662433,0.00091552734375,0.021517880875359767
0.0775,0.0448295585811138,0.00030517578125,0.020637860205620858
0.0779999999999999,0.0448054932057857,0.00030517578125,0.019940136327653395
0.0785,0.0447805821895599,0.00030517578125,0.019046950515207307
0.0789999999999999,0.0447560027241706,0.0006103515625,0.01825076439286707
0.0795,0.0447314456105232,0.0006103515625,0.017467694394948777
0.0799999999999999,0.0447065234184265,0.00091552734375,0.016622234887904135
0.0805,0.0446818433701992,0.0006103515625,0.01584793900692884
0.0809999999999999,0.0446571893990039,0.00030517578125,0.015089050878460757
0.0815,0.0446324832737445,0.00030517578125,0.014330173795361919
0.0819999999999999,0.0446081012487411,0.00030517578125,0.013641135468734283
0.0825,0.0445831976830959,0.00030517578125,0.012861425060231715
0.0829999999999999,0.0445586405694484,0.0006103515625,0.01216285702311453
0.0835,0.0445335283875465,0.0006103515625,0.011380831987597177
0.0839999999999999,0.0445088893175125,0.00030517578125,0.010701021596942669
0.0845,0.0444847643375396,0.00030517578125,0.01010939681210877
0.0849999999999999,0.0444598123431205,0.00030517578125,0.009388068865108188
0.0855,0.0444350726902484,0.00030517578125,0.008721499302984567
0.0859999999999999,0.0444102175533771,0.0,0.008054124108888264
0.0865,0.0443859286606311,0.00091552734375,0.007481957106154399
0.0869999999999999,0.0443609505891799,0.0006103515625,0.006824328154703314
0.0875,0.0443362779915332,0.0,0.006228732431716157
0.0879999999999999,0.0443118847906589,0.0,0.005682224244468088
0.0885,0.0442865118384361,0.00030517578125,0.005035663186325683
0.0889999999999999,0.0442621521651744,0.0,0.00453151853797222
0.0895,0.0442372299730777,0.0006103515625,0.003981934763036687
0.0899999999999999,0.0442124344408512,0.0006103515625,0.0034697293848816356
0.0905,0.0441880747675895,0.0,0.003019556417353392
0.0909999999999999,0.0441633351147174,0.00091552734375,0.0025556864925790476
0.0915,0.0441388003528118,0.0006103515625,0.0021343712740394174
0.0919999999999999,0.044114101678133,0.0006103515625,0.0017280087358207416
0.0925,0.0440893024206161,0.00030517578125,0.0013476983613324005
0.0929999999999999,0.0440648384392261,0.00030517578125,0.0010219383914794808
0.0935,0.0440399572253227,0.00030517578125,0.0007129118285530029
0.0939999999999999,0.044015347957611,0.0006103515625,0.00046082725119176837
0.0945,0.0439906120300293,0.00030517578125,0.0002532621086912861
0.0949999999999999,0.0439660139381885,0.00030517578125,0.00010487246684315869
0.0955,0.0439413301646709,0.0006103515625,1.7948399030612394e-05
0.0959999999999999,0.0439165346324443,0.0,0.0
0.0965,0.0438921824097633,0.0006103515625,0.0
0.0969999999999999,0.0438674576580524,-0.00030517578125,0.0
0.0975,0.0438426733016967,0.00030517578125,0.0
0.0979999999999999,0.0438180826604366,0.00091552734375,0.0
0.0985,0.0437930934131145,0.0,0.0
0.0989999999999999,0.0437686033546924,0.00030517578125,0.0
0.0995,0.0437437742948532,0.0006103515625,0.0
0.0999999999999999,0.0437194369733333,-0.0006103515625,0.0
0.1005,0.0436946675181388,0.0,0.0
0.1009999999999999,0.0436695404350757,0.00091552734375,0.0
0.1015,0.043645154684782,0.00030517578125,0.0
0.1019999999999999,0.0436205640435218,0.00030517578125,0.0
0.1025,0.0435956493020057,-0.00030517578125,0.0
0.1029999999999999,0.043570976704359,0.0006103515625,0.0
0.1035,0.0435461737215518,0.0,0.0
0.1039999999999999,0.0435214191675186,0.00030517578125,0.0
0.1045,0.0434966385364532,0.00030517578125,0.0
0.1049999999999999,0.0434717200696468,0.00091552734375,0.0
0.1055,0.0434474311769008,0.001220703125,0.0
0.1059999999999999,0.0434222444891929,0.0006103515625,0.0
0.1065,0.0433980710804462,0.00091552734375,0.0
0.1069999999999999,0.0433732010424137,0.0,0.0
0.1075,0.0433485209941864,0.0006103515625,0.0
0.1079999999999999,0.0433240458369255,0.00091552734375,0.0
0.1085,0.0432991348206996,0.00030517578125,0.0
0.1089999999999999,0.0432748086750507,0.0006103515625,0.0
0.1095,0.0432501286268234,0.00091552734375,0.0
0.1099999999999999,0.043225459754467,0.0006103515625,0.0
0.1105,0.0432005934417247,0.00030517578125,0.0
0.1109999999999999,0.0431760251522064,0.00030517578125,0.0
0.1115,0.0431515648961067,0.00030517578125,0.0
0.1119999999999999,0.0431267358362674,0.0,0.0
0.1125,0.0431022830307483,0.0,0.0
0.1129999999999999,0.0430775620043277,0.00091552734375,0.0
0.1135,0.0430524386465549,0.00030517578125,0.0
0.1139999999999999,0.0430279076099395,0.00030517578125,0.0
0.1145,0.0430031456053257,0.00030517578125,0.0
0.1149999999999999,0.0429786816239357,0.0,0.0
0.1155,0.042953722178936,0.00030517578125,0.0
0.1159999999999999,0.04292918369174,0.00030517578125,0.0
0.1165,0.0429047495126724,0.00030517578125,0.0
0.1169999999999999,0.0428796596825122,-0.00030517578125,0.0
0.1175,0.0428552627563476,0.0006103515625,0.0
0.118,0.0428304560482502,0.00091552734375,0.0
0.1185,0.0428059585392475,0.00030517578125,0.0
0.119,0.0427810698747634,0.00030517578125,0.0
0.1195,0.0427564270794391,0.00030517578125,0.0
0.12,0.0427317321300506,0.0006103515625,0.0
0.1205,0.0427064336836338,0.0006103515625,0.0
0.121,0.0426824241876602,0.0006103515625,0.0
0.1215,0.0426576770842075,0.0006103515625,0.0
0.122,0.0426325239241123,0.00091552734375,0.0
0.1225,0.0426081977784633,0.0,0.0
0.123,0.0425834581255912,0.00030517578125,0.0
0.1235,0.0425586104393005,0.0006103515625,0.0
0.124,0.0425341576337814,0.0006103515625,0.0
0.1245,0.0425093248486518,0.00091552734375,0.0
0.125,0.0424849241971969,0.0,0.0
0.1254999999999999,0.0424601547420024,0.0,0.0
0.126,0.042435698211193,0.0006103515625,0.0
0.1264999999999999,0.0424108058214187,0.0006103515625,0.0
0.127,0.0423862338066101,0.0,0.0
0.1274999999999999,0.0423615723848342,0.0,0.0
0.128,0.0423369295895099,0.00030517578125,0.0
0.1284999999999999,0.0423121713101863,0.0,0.0
0.129,0.0422873087227344,0.0,0.0
0.1294999999999999,0.0422625578939914,0.0006103515625,0.0
0.13,0.0422380454838275,0.0006103515625,0.0
0.1304999999999999,0.0422132350504398,-0.00030517578125,0.0
0.131,0.0421889200806617,0.0006103515625,0.0
0.1314999999999999,0.0421639755368232,0.00091552734375,0.0
0.132,0.0421393327414989,0.00030517578125,0.0
0.1324999999999999,0.0421144813299179,0.0006103515625,0.0
0.133,0.0420900173485279,0.0,0.0
0.1334999999999999,0.0420653522014617,0.001220703125,0.0
0.134,0.0420405194163322,0.0006103515625,0.0
0.1344999999999999,0.0420158766210079,0.00091552734375,0.0
0.135,0.0419908948242664,0.0,0.0
0.1354999999999999,0.0419662669301033,0.001220703125,0.0
0.136,0.0419415086507797,0.0006103515625,0.0
0.1364999999999999,0.0419167131185531,0.0,0.0
0.137,0.0418917313218116,0.0,0.0
0.1374999999999999,0.0418673567473888,0.0,0.0
0.138,0.0418426431715488,0.00030517578125,0.0
0.1384999999999999,0.0418178886175155,0.00030517578125,0.0
0.139,0.0417931862175464,0.0,0.0
0.1394999999999999,0.0417681857943534,0.00030517578125,0.0
0.14,0.0417439229786396,0.0006103515625,0.0
0.1404999999999999,0.0417191088199615,0.0006103515625,0.0
0.141,0.0416947752237319,0.0006103515625,0.0
0.1414999999999999,0.0416701585054397,0.00030517578125,0.0
0.142,0.0416451431810855,0.0006103515625,0.0
0.1424999999999999,0.0416207090020179,0.0006103515625,0.0
0.143,0.0415959581732749,0.00030517578125,0.0
0.1434999999999999,0.0415713414549827,0.0,0.0
0.144,0.0415467321872711,0.00030517578125,0.0
0.1444999999999999,0.0415220521390438,0.00030517578125,0.0
0.145,0.0414975546300411,0.001220703125,0.0
0.1454999999999999,0.0414725095033645,0.00030517578125,0.0
0.146,0.0414480865001678,0.0006103515625,0.0
0.1464999999999999,0.0414233803749084,0.0006103515625,0.0
0.147,0.0413987077772617,0.0006103515625,0.0
0.1474999999999999,0.0413741841912269,0.0,0.0
0.148,0.0413494855165481,0.00030517578125,0.0
0.1484999999999999,0.0413248091936111,0.0,0.0
0.149,0.0412999913096427,0.0006103515625,0.0
0.1494999999999999,0.0412752255797386,0.0,0.0
0.15,0.0412508659064769,0.0006103515625,0.0
0.1504999999999999,0.0412256903946399,0.0006103515625,0.0
0.151,0.0412018448114395,-0.00030517578125,0.0
0.1514999999999999,0.0411765985190868,0.00030517578125,0.0
0.152,0.0411518663167953,0.00030517578125,0.0
0.1524999999999999,0.0411270298063755,0.0006103515625,0.0
0.153,0.0411021150648593,0.0006103515625,0.0
0.1534999999999999,0.0410779416561126,0.00030517578125,0.0
0.154,0.0410528294742107,0.0006103515625,0.0
0.1544999999999999,0.0410285703837871,0.0006103515625,0.0
0.155,0.0410038083791732,0.0006103515625,0.0
0.1554999999999999,0.0409786961972713,0.0,0.0
0.156,0.040954153984785,0.00091552734375,0.0
0.1564999999999999,0.0409297794103622,0.0006103515625,0.0
0.157,0.0409049540758132,0.00030517578125,0.0
0.1574999999999999,0.0408804230391979,0.0006103515625,0.0
0.158,0.0408556163311004,0.0006103515625,0.0
0.1584999999999999,0.0408309735357761,0.0006103515625,0.0
0.159,0.0408063568174839,0.0006103515625,0.0
0.1594999999999999,0.0407817773520946,0.00030517578125,0.0
0.16,0.0407569855451583,0.00091552734375,0.0
0.1604999999999999,0.0407318547368049,0.00030517578125,0.0
0.161,0.0407076478004455,0.001220703125,0.0
0.1614999999999999,0.040682628750801,0.0006103515625,0.0
0.162,0.0406581908464431,0.00030517578125,0.0
0.1624999999999999,0.0406330786645412,0.00030517578125,0.0
0.163,0.0406085327267646,0.00091552734375,0.0
0.1634999999999999,0.0405842997133731,0.0006103515625,0.0
0.164,0.0405591577291488,0.0006103515625,0.0
0.1644999999999999,0.0405349992215633,0.0006103515625,0.0
0.165,0.0405098721385002,0.00030517578125,0.0
0.1654999999999999,0.040484994649887,0.00091552734375,0.0
0.166,0.0404604822397232,0.00030517578125,0.0
0.1664999999999999,0.040435791015625,0.00030517578125,0.0
0.167,0.0404112376272678,0.0,0.0
0.1674999999999999,0.0403861925005912,0.0006103515625,0.0
0.168,0.040361288934946,0.00030517578125,0.0
0.1684999999999999,0.0403367541730403,0.00091552734375,0.0
0.169,0.0403118655085563,0.0006103515625,0.0
