time [s],Lmtc [m],STIM [ ],Fsee [N]
0.0,0.0460064671933651,0.0006103515625,0.14338663675644178
0.0004999999999999,0.0460066720843315,0.0006103515625,0.14351435700810886
0.001,0.0460065230727195,0.00030517578125,0.14341926763968244
0.0014999999999999,0.0460068173706531,0.0006103515625,0.14360225902999682
0.002,0.0460065267980098,0.0006103515625,0.1434174315733054
0.0024999999999999,0.0460065715014934,0.0006103515625,0.1434447444029443
0.003,0.0460064113140106,-0.00030517578125,0.1433440919164767
0.0034999999999999,0.0460063740611076,-0.00030517578125,0.14332228178706283
0.004,0.0460065007209777,0.0006103515625,0.14340268053205724
0.0044999999999999,0.0460064671933651,0.0006103515625,0.14338137204345555
0.005,0.0460067726671695,0.0006103515625,0.14357180214219092
0.0054999999999999,0.0460063219070434,-0.00030517578125,0.14328809720344376
0.006,0.0460062175989151,0.0006103515625,0.1432269076326345
0.0064999999999999,0.0460062362253665,0.0006103515625,0.1432438940138392
0.007,0.0460057742893695,0.0006103515625,0.14296334362174795
0.0074999999999999,0.0460054241120815,0.00030517578125,0.14276168713881737
0.008,0.0460045486688613,0.0006103515625,0.14224315574829596
0.0084999999999999,0.0460029244422912,0.00030517578125,0.14128475573318228
0.009,0.045999601483345,0.00030517578125,0.13932533689649737
0.0094999999999999,0.0459941513836383,0.00030517578125,0.13616763946069202
0.01,0.0459876544773578,0.0006103515625,0.13254013195415393
0.0104999999999999,0.0459791421890258,0.0,0.12792984580961372
0.011,0.0459694862365722,0.0,0.12294245619539242
0.0114999999999999,0.0459583476185798,0.001220703125,0.1174611937282874
0.012,0.0459461510181427,0.0006103515625,0.11181240828315159
0.0124999999999999,0.0459338165819644,-0.00030517578125,0.10655536437418732
0.013,0.0459203980863094,0.0,0.10121048254800667
0.0134999999999999,0.0459075197577476,0.00030517578125,0.0966607540882162
0.014,0.0458941422402858,0.00030517578125,0.09234645343330009
0.0144999999999999,0.0458811670541763,0.00030517578125,0.08871235698683945
0.015,0.0458678901195526,0.00030517578125,0.08537459310263708
0.0154999999999999,0.0458546131849288,0.0006103515625,0.08246109242800789
0.016,0.0458417050540447,0.0006103515625,0.08009429005313562
0.0164999999999999,0.0458284839987754,0.00030517578125,0.07790614439171423
0.017,0.0458156764507293,0.0006103515625,0.07618932482825107
0.0174999999999999,0.0458027981221675,0.00091552734375,0.07466319873706029
0.018,0.0457896776497364,-0.00030517578125,0.07322637735690267
0.0184999999999999,0.0457770638167858,0.001220703125,0.07217062838784244
0.019,0.0457639768719673,0.00030517578125,0.07102599916085148
0.0194999999999999,0.0457517057657241,0.00030517578125,0.07032642732412257
0.02,0.0457391366362571,0.0006103515625,0.06954032617972127
0.0204999999999999,0.0457262322306633,0.00030517578125,0.06867127472810562
0.021,0.0457133986055851,0.00091552734375,0.06789457843192073
0.0214999999999999,0.0457007884979248,0.00030517578125,0.06725008291809355
0.022,0.0456882379949092,0.00030517578125,0.06664834358733442
0.0224999999999999,0.0456755608320236,-0.00030517578125,0.06600890157732697
0.023,0.0456628948450088,0.00030517578125,0.06539232453005538
0.0234999999999999,0.0456501059234142,0.00030517578125,0.0647433320828057
0.024,0.0456371456384658,0.0006103515625,0.06404906922521508
0.0244999999999999,0.0456244423985481,0.0,0.0634812082390938
0.025,0.0456116609275341,0.0006103515625,0.06288820176315543
0.0254999999999999,0.0455988757312297,0.0,0.06230354916573398
0.026,0.0455860681831836,0.00030517578125,0.061718713153686475
0.0264999999999999,0.0455735325813293,-0.00030517578125,0.0612439457516997
0.027,0.0455607920885086,0.00030517578125,0.06068077925436802
0.0274999999999999,0.0455477572977542,0.0,0.06001373506127616
0.028,0.0455351024866104,0.00030517578125,0.05951226610569711
0.0284999999999999,0.0455224812030792,0.0006103515625,0.05901754185490181
0.029,0.045509535819292,0.0006103515625,0.058397185623050595
0.0294999999999999,0.0454969257116317,0.0006103515625,0.05791657810197095
0.03,0.0454839207231998,0.0006103515625,0.057283690800147204
0.0304999999999999,0.0454713143408298,0.0006103515625,0.05681406039193163
0.031,0.0454588010907173,0.00091552734375,0.05636846848877565
0.0314999999999999,0.0454459525644779,0.0006103515625,0.05578935169290709
0.032,0.0454333387315273,0.0006103515625,0.0553055939463044
0.0324999999999999,0.0454202443361282,0.0,0.05464535551886471
0.033,0.0454074665904045,0.00091552734375,0.054123686367643864
0.0334999999999999,0.0453948080539703,0.0006103515625,0.05364555623678306
0.034,0.0453819297254085,0.0,0.05308439142302945
0.0344999999999999,0.0453693605959415,0.00091552734375,0.05264021995756717
0.035,0.0453568063676357,0.0,0.052190653158972686
0.0354999999999999,0.0453438535332679,0.0006103515625,0.05159409024928822
0.036,0.0453311093151569,0.00091552734375,0.051086350366414554
0.0364999999999999,0.04531841725111,0.00030517578125,0.050597650002020315
0.037,0.0453058220446109,0.00030517578125,0.0501409115573479
0.0374999999999999,0.0452925525605678,0.00091552734375,0.049447119730608065
0.038,0.0452805459499359,0.00030517578125,0.049216420560616106
0.0384999999999999,0.0452673360705375,0.00091552734375,0.04853618968340086
0.039,0.0452547408640384,0.0006103515625,0.04809523287646833
0.0394999999999999,0.0452420599758625,0.00030517578125,0.04761782856344896
0.04,0.045229434967041,0.00030517578125,0.047158199095801295
0.0404999999999999,0.0452166609466075,0.0006103515625,0.04664712882154103
0.041,0.0452032312750816,0.0006103515625,0.04592495617791585
0.0414999999999999,0.0451910942792892,0.00030517578125,0.04566573340724483
0.042,0.0451782085001468,0.0006103515625,0.04512662847524569
0.0424999999999999,0.0451653450727462,0.00030517578125,0.0446056643642058
0.043,0.0451526716351509,0.0006103515625,0.044154227610319494
0.0434999999999999,0.0451396107673645,0.0006103515625,0.04357498009645927
0.044,0.0451271422207355,0.0,0.04320329869825064
0.0444999999999999,0.0451140217483043,0.0,0.04260911979265559
0.045,0.0451015122234821,0.00030517578125,0.0422292807940026
0.0454999999999999,0.0450885482132434,0.00030517578125,0.04169361946460937
0.046,0.045075811445713,0.00030517578125,0.041241222885757295
0.0464999999999999,0.0450632572174072,0.00030517578125,0.04084553977579689
0.047,0.0450501441955566,0.0,0.04026728266461493
0.0474999999999999,0.0450375936925411,0.00030517578125,0.039881883392978774
0.048,0.0450246222317218,0.00030517578125,0.03935729864616735
0.0484999999999999,0.0450119264423847,0.00030517578125,0.038927967952390646
0.049,0.044999424368143,0.0006103515625,0.038555196429300484
0.0494999999999999,0.044986605644226,-0.00030517578125,0.038076404635743355
0.05,0.0449740290641784,0.0,0.037676303502263836
0.0504999999999999,0.0449611134827137,0.0006103515625,0.03716963128654664
0.051,0.0449482500553131,0.0006103515625,0.03668889150000875
0.0514999999999999,0.0449359156191349,0.0006103515625,0.036371560286823076
0.052,0.0449229106307029,0.00030517578125,0.035840378331140746
0.0524999999999999,0.0449103266000747,0.00030517578125,0.03544700953947226
0.053,0.0448975898325443,0.00091552734375,0.0350044897346381
0.0534999999999999,0.0448851212859153,0.00091552734375,0.03464229165363871
0.054,0.044872410595417,0.0006103515625,0.03420211283428101
0.0544999999999999,0.0448595806956291,0.0,0.03373077471207568
0.055,0.0448470711708068,0.00091552734375,0.033358316922505425
0.0554999999999999,0.0448338128626346,0.0,0.032768441132881965
0.056,0.0448213070631027,0.00030517578125,0.032414378390477505
0.0564999999999999,0.0448087826371192,0.00030517578125,0.032047778362138526
0.057,0.0447956770658493,0.00091552734375,0.031514168612267725
0.0574999999999999,0.0447830595076084,0.0006103515625,0.031132019139461602
0.058,0.0447703152894973,0.00030517578125,0.03071218906962259
0.0584999999999999,0.044757854193449,0.0,0.03037203544676376
0.059,0.0447449684143066,0.00030517578125,0.029909067918941306
0.0595,0.0447324439883232,0.0006103515625,0.029551951715212396
0.06,0.0447197221219539,0.0006103515625,0.02913719527677689
0.0605,0.0447065643966198,0.00030517578125,0.02861001010629226
0.061,0.044693749397993,0.00030517578125,0.028190859940438007
0.0615,0.0446813479065895,0.00030517578125,0.0278833993266018
0.062,0.0446687117218971,0.0006103515625,0.0275049203545651
0.0625,0.0446558110415935,0.0006103515625,0.027057910039056318
0.0629999999999999,0.044642899185419,0.00091552734375,0.026616358507838576
0.0635,0.0446302965283393,0.0,0.02626105076736431
0.0639999999999999,0.0446176007390022,0.00030517578125,0.025879503215250448
0.0645,0.0446047000586986,0.00030517578125,0.025447233693823224
0.0649999999999999,0.0445922687649726,0.0006103515625,0.025139419026161715
0.0655,0.0445790626108646,0.0,0.024632410189079974
0.0659999999999999,0.0445665046572685,0.0006103515625,0.024301525446301153
0.0665,0.0445538647472858,0.0,0.02394622197284691
0.0669999999999999,0.0445414297282695,0.0006103515625,0.023639719171297306
0.0675,0.0445287004113197,0.00030517578125,0.023256562838553978
0.0679999999999999,0.0445157103240489,0.0006103515625,0.022814215772495098
0.0685,0.0445031560957431,0.00030517578125,0.022485173136850556
0.0689999999999999,0.0444902442395687,0.0,0.022069312846631522
0.0695,0.0444772839546203,0.0006103515625,0.021649569038378044
0.0699999999999999,0.0444647632539272,0.00030517578125,0.02133949183516224
0.0705,0.0444518364965915,0.00030517578125,0.02093213150380801
0.0709999999999999,0.0444394424557685,0.00030517578125,0.020653057968122307
0.0715,0.0444266498088836,0.0006103515625,0.020277472503992727
0.0719999999999999,0.044413648545742,0.0006103515625,0.019859397275754018
0.0725,0.0444006249308586,0.0006103515625,0.01944529257058254
0.0729999999999999,0.0443880446255207,0.0006103515625,0.01913720049715618
0.0735,0.0443755909800529,0.0006103515625,0.018854205752432567
0.0739999999999999,0.0443625971674919,0.0006103515625,0.018449564437809176
0.0745,0.0443499125540256,0.00091552734375,0.0181193001832227
0.0749999999999999,0.0443373173475265,-0.00030517578125,0.017808625671466453
0.0755,0.0443241260945797,0.0,0.01737172607161269
0.0759999999999999,0.0443115644156932,0.0006103515625,0.017078155879753712
0.0765,0.0442987531423568,0.0006103515625,0.016730484547048646
0.0769999999999999,0.0442864559590816,0.0006103515625,0.016491253474462047
0.0775,0.0442731045186519,0.00030517578125,0.01603154325211498
0.0779999999999999,0.0442606694996356,0.0,0.01577074677566225
0.0785,0.0442480407655239,0.00091552734375,0.015467108414375413
0.0789999999999999,0.0442349389195442,0.0,0.015070653320388174
0.0795,0.0442222096025943,0.0006103515625,0.01475598118146357
0.0799999999999999,0.0442094281315803,0.0,0.014432871869583848
0.0805,0.0441967993974685,0.00030517578125,0.014141430936762378
0.0809999999999999,0.044183999300003,-0.00030517578125,0.013817574420422689
0.0815,0.044171292334795,0.00030517578125,0.01351435203921818
0.0819999999999999,0.0441583767533302,0.0,0.013174271259835542
0.0825,0.044145829975605,0.00030517578125,0.012906444200499665
0.0829999999999999,0.0441330485045909,0.00030517578125,0.012595010470354656
0.0835,0.0441203862428665,0.0006103515625,0.012307888764488042
0.0839999999999999,0.044107437133789,0.0,0.0119713803306563
0.0845,0.0440946407616138,-0.00030517578125,0.011667118000962944
0.0849999999999999,0.044082187116146,0.00030517578125,0.011424658656654966
0.0855,0.0440693534910678,0.0006103515625,0.011115620570713617
0.0859999999999999,0.0440564453601837,0.0,0.010798217987829156
0.0865,0.0440439619123935,0.0,0.010555813634607097
0.0869999999999999,0.0440312437713146,0.00030517578125,0.010273611960554294
0.0875,0.044018268585205,0.0006103515625,0.009952376670600867
0.0879999999999999,0.0440060123801231,0.0,0.009751295242734387
0.0885,0.0439930595457553,0.0006103515625,0.009436899518505125
0.0889999999999999,0.0439802259206771,0.0,0.009146967145812462
0.0895,0.0439675077795982,0.00030517578125,0.0088786374477779
0.0899999999999999,0.0439546816051006,-0.00030517578125,0.008596559441832982
0.0905,0.0439420714974403,0.00030517578125,0.008350239556522265
0.0909999999999999,0.0439291186630725,0.00091552734375,0.008055217330520986
0.0915,0.0439167693257331,0.0006103515625,0.007851904796808485
0.0919999999999999,0.0439039133489131,0.00030517578125,0.007575150411803638
0.0925,0.0438907966017723,0.0006103515625,0.007266943441845919
0.0929999999999999,0.0438783168792724,0.0006103515625,0.007052730606678632
0.0935,0.0438653491437435,0.0006103515625,0.006773128513970622
0.0939999999999999,0.0438526608049869,0.0006103515625,0.0065357329959598795
0.0945,0.0438396483659744,0.0006103515625,0.006258937896119862
0.0949999999999999,0.0438273213803768,-0.00030517578125,0.006074482347716689
0.0955,0.0438143946230411,0.00030517578125,0.00581424269540084
0.0959999999999999,0.0438015386462211,0.001220703125,0.005567784799547837
0.0965,0.0437890738248825,0.0,0.005372059656117329
0.0969999999999999,0.0437761545181274,0.00091552734375,0.005123699036631879
0.0975,0.0437634699046611,0.0006103515625,0.004907197918756434
0.0979999999999999,0.0437505990266799,0.00030517578125,0.004672699088724408
0.0985,0.0437380746006965,0.00030517578125,0.004480469471523407
0.0989999999999999,0.0437254086136817,0.0006103515625,0.004274530841860245
0.0995,0.0437121763825416,0.00030517578125,0.00401284413306414
0.0999999999999999,0.0436999052762985,0.00091552734375,0.0038563089579953472
0.1005,0.0436870343983173,0.0006103515625,0.003640162325424223
0.1009999999999999,0.0436741486191749,0.00030517578125,0.0034276147877795116
0.1015,0.0436615198850631,0.0006103515625,0.003244082673714916
0.1019999999999999,0.0436484366655349,0.0,0.00302257062482072
0.1025,0.0436357483267784,0.0,0.002842405671318525
0.1029999999999999,0.0436231009662151,0.00030517578125,0.002669296746088148
0.1035,0.0436102263629436,0.0006103515625,0.002481066065868243
0.1039999999999999,0.0435976311564445,0.00030517578125,0.002320244436865844
0.1045,0.0435849018394947,0.00030517578125,0.0021525258917390396
0.1049999999999999,0.0435721687972545,0.00030517578125,0.0019890632129674485
0.1055,0.0435594171285629,0.00091552734375,0.0018290071553648827
0.1059999999999999,0.0435466989874839,0.00030517578125,0.001676219793939804
0.1065,0.0435338243842124,0.0006103515625,0.0015183390197514622
0.1069999999999999,0.0435212515294551,0.0,0.0013851573272679611
0.1075,0.0435086078941822,0.0006103515625,0.0012521084170843747
0.1079999999999999,0.0434954650700092,0.0006103515625,0.0010967042531845662
0.1085,0.0434827879071235,0.0006103515625,0.0009741758304994275
0.1089999999999999,0.0434698574244976,-0.00030517578125,0.0008451246741405256
0.1095,0.0434569902718067,0.0,0.0007266881924144447
0.1099999999999999,0.0434443019330501,0.0,0.0006231538380858156
0.1105,0.043431419879198,0.00030517578125,0.0005188517546813879
0.1109999999999999,0.0434185825288295,0.00030517578125,0.0004243704539797383
0.1115,0.0434062518179416,0.0006103515625,0.0003537395911082378
0.1119999999999999,0.0433934591710567,0.0006103515625,0.0002754382795646457
0.1125,0.043380681425333,0.0006103515625,0.00020625927228157004
0.1129999999999999,0.0433680862188339,0.00030517578125,0.00014984136523333514
0.1135,0.0433554910123348,0.00091552734375,0.0001016173918063002
0.1139999999999999,0.0433425977826118,0.00030517578125,5.825138908371396e-05
0.1145,0.0433296598494052,0.0006103515625,2.6060201667424437e-05
0.1149999999999999,0.0433173887431621,0.00030517578125,9.52330671946947e-06
0.1155,0.0433042310178279,0.0,8.105577849929863e-08
0.1159999999999999,0.0432919971644878,0.00030517578125,0.0
0.1165,0.0432789660990238,0.0,0.0
0.1169999999999999,0.0432663969695568,0.00030517578125,0.0
0.1175,0.0432535819709301,0.00030517578125,0.0
0.118,0.0432408414781093,0.0006103515625,0.0
0.1185,0.0432282611727714,0.00030517578125,0.0
0.119,0.0432149767875671,0.00030517578125,0.0
0.1195,0.0432028397917747,-0.00030517578125,0.0
0.12,0.043189950287342,0.00030517578125,0.0
0.1205,0.0431770086288452,0.0006103515625,0.0
0.121,0.0431642681360244,0.00030517578125,0.0
0.1215,0.0431516617536544,0.0,0.0
0.122,0.0431389771401882,0.0006103515625,0.0
0.1225,0.0431258454918861,0.00030517578125,0.0
0.123,0.0431133061647415,0.0006103515625,0.0
0.1235,0.0431004762649536,0.00030517578125,0.0
0.124,0.0430876202881336,0.0,0.0
0.1245,0.04307496920228,0.0006103515625,0.0
0.125,0.0430621467530727,0.00030517578125,0.0
0.1254999999999999,0.043049681931734,0.0006103515625,0.0
0.126,0.0430369488894939,0.00030517578125,0.0
0.1264999999999999,0.0430241264402866,0.0006103515625,0.0
0.127,0.0430114232003688,0.0,0.0
0.1274999999999999,0.0429983884096145,0.0,0.0
0.128,0.0429857410490512,0.0006103515625,0.0
0.1284999999999999,0.0429732911288738,0.00030517578125,0.0
0.129,0.0429604537785053,0.0006103515625,0.0
0.1294999999999999,0.0429477393627166,0.00091552734375,0.0
0.13,0.0429349616169929,0.0006103515625,0.0
0.1304999999999999,0.0429223850369453,0.0006103515625,0.0
0.131,0.042909063398838,0.0006103515625,0.0
0.1314999999999999,0.0428965725004673,0.0006103515625,0.0
0.132,0.042884025722742,0.00030517578125,0.0
0.1324999999999999,0.0428709015250206,0.00030517578125,0.0
0.133,0.0428583025932312,0.0006103515625,0.0
0.1334999999999999,0.0428458005189895,0.0006103515625,0.0
0.134,0.0428330935537815,0.00030517578125,0.0
0.1344999999999999,0.0428201965987682,0.00091552734375,0.0
0.135,0.0428072661161422,0.0006103515625,0.0
0.1354999999999999,0.0427947416901588,0.0006103515625,0.0
0.136,0.0427821241319179,0.00030517578125,0.0
0.1364999999999999,0.0427689515054225,0.00030517578125,0.0
0.137,0.042756613343954,0.00152587890625,0.0
0.1374999999999999,0.0427433624863624,0.00030517578125,0.0
0.138,0.0427307486534118,0.0006103515625,0.0
0.1384999999999999,0.0427183173596859,0.00030517578125,0.0
0.139,0.0427051074802875,0.0006103515625,0.0
0.1394999999999999,0.0426926054060459,0.00091552734375,0.0
0.14,0.042679414153099,0.00030517578125,0.0
0.1404999999999999,0.0426670797169208,0.00030517578125,0.0
0.141,0.0426538102328777,0.00030517578125,0.0
0.1414999999999999,0.0426413528621196,0.0006103515625,0.0
0.142,0.0426287539303302,0.0006103515625,0.0
0.1424999999999999,0.0426158979535102,0.00091552734375,0.0
0.143,0.0426030941307544,0.00030517578125,0.0
0.1434999999999999,0.0425904467701911,0.0006103515625,0.0
0.144,0.0425775870680809,0.0006103515625,0.0
0.1444999999999999,0.0425647124648094,0.0,0.0
0.145,0.0425524488091468,0.00091552734375,0.0
0.1454999999999999,0.0425398014485836,0.00030517578125,0.0
0.146,0.0425265468657016,0.00030517578125,0.0
0.1464999999999999,0.0425141006708145,0.00030517578125,0.0
0.147,0.0425013191998004,0.00030517578125,0.0
0.1474999999999999,0.0424884893000125,0.00030517578125,0.0
0.148,0.0424759350717067,0.0006103515625,0.0
0.1484999999999999,0.0424632579088211,0.00030517578125,0.0
0.149,0.0424505434930324,0.00030517578125,0.0
0.1494999999999999,0.0424375608563423,0.0006103515625,0.0
0.15,0.0424247905611991,0.00030517578125,0.0
0.1504999999999999,0.0424124374985694,0.00030517578125,0.0
0.151,0.0423994287848472,0.0006103515625,0.0
0.1514999999999999,0.0423868000507354,0.00091552734375,0.0
0.152,0.0423739701509475,0.00030517578125,0.0
0.1524999999999999,0.0423611812293529,0.00091552734375,0.0
0.153,0.0423482321202755,0.001220703125,0.0
0.1534999999999999,0.0423354096710681,0.00091552734375,0.0
0.154,0.0423229336738586,0.0006103515625,0.0
0.1544999999999999,0.0423098988831043,0.0006103515625,0.0
0.155,0.042297463864088,0.0006103515625,0.0
0.1554999999999999,0.0422845594584941,0.00030517578125,0.0
0.156,0.0422716811299324,0.00030517578125,0.0
0.1564999999999999,0.0422592386603355,0.001220703125,0.0
0.157,0.0422462783753871,0.0006103515625,0.0
0.1574999999999999,0.0422334000468254,0.00091552734375,0.0
0.158,0.0422208942472934,0.0006103515625,0.0
0.1584999999999999,0.0422082431614398,0.0006103515625,0.0
0.159,0.0421952977776527,0.0006103515625,0.0
0.1594999999999999,0.0421825721859931,0.0006103515625,0.0
0.16,0.0421698354184627,0.0006103515625,0.0
0.1604999999999999,0.042157132178545,0.0006103515625,0.0
