time [s],Lmtc [m],STIM [ ],Fsee [N]
0.0,0.048014648258686,0.00030517578125,0.23866293472027142
0.0004999999999999,0.0480148680508136,0.0,0.238837882770882
0.001,0.048014722764492,0.00091552734375,0.23871543784183005
0.0014999999999999,0.0480151660740375,0.00030517578125,0.23906665932322915
0.002,0.0480147264897823,-0.00030517578125,0.23870121839333075
0.0024999999999999,0.0480148755013942,0.0,0.2388184016808973
0.003,0.0480145886540412,0.0006103515625,0.23858505118626677
0.0034999999999999,0.0480145961046218,0.00030517578125,0.23859565889595838
0.004,0.0480149649083614,0.00091552734375,0.23889145693632483
0.0044999999999999,0.0480148382484912,0.0006103515625,0.23878184358943882
0.005,0.0480148121714592,0.0006103515625,0.23875656427966635
0.0054999999999999,0.0480147674679756,-0.00030517578125,0.2387173787239644
0.006,0.0480146184563636,0.00030517578125,0.23859748299408376
0.0064999999999999,0.0480150133371353,0.0006103515625,0.2389145110829877
0.007,0.0480146445333957,0.00030517578125,0.2386119584019316
0.0074999999999999,0.0480139181017875,0.0006103515625,0.23805076033920747
0.008,0.0480125918984413,0.00091552734375,0.23706530221017508
0.0084999999999999,0.0480098687112331,0.0006103515625,0.23508168499943013
0.009,0.0480060800909996,0.0,0.23245209911175316
0.0094999999999999,0.0480001382529735,0.00091552734375,0.22845010718009917
0.01,0.0479935966432094,0.00030517578125,0.22444810442899124
0.0104999999999999,0.0479857362806797,0.00030517578125,0.22000522555108828
0.011,0.0479766204953193,0.0,0.21534333771696917
0.0114999999999999,0.0479673221707344,0.0,0.21141081380296312
0.012,0.0479568988084793,0.0,0.20755015883596745
0.0124999999999999,0.0479469336569309,0.00030517578125,0.20492735220443423
0.013,0.0479364357888698,0.0006103515625,0.20261997047295466
0.0134999999999999,0.0479258522391319,0.0,0.2008451849815557
0.014,0.047915693372488,0.0006103515625,0.19974011185264837
0.0144999999999999,0.0479046180844306,0.0006103515625,0.1982447094674778
0.015,0.0478942804038524,0.00030517578125,0.19749448473114026
0.0154999999999999,0.0478840321302413,0.00091552734375,0.196801295059065
0.016,0.047873605042696,0.00030517578125,0.19598786510659438
0.0164999999999999,0.0478633381426334,0.0006103515625,0.19530299386082486
0.017,0.0478528849780559,0.00030517578125,0.19449071913343996
0.0174999999999999,0.0478426441550254,0.00030517578125,0.19383219226048742
0.018,0.0478326752781868,0.0006103515625,0.19330992964428437
0.0184999999999999,0.0478221178054809,0.00030517578125,0.19236435321351958
0.019,0.047812283039093,0.0006103515625,0.19193446260229238
0.0194999999999999,0.0478021949529647,0.0006103515625,0.19125326940469517
0.02,0.0477916523814201,0.0,0.190293178744985
0.0204999999999999,0.0477818772196769,0.0,0.18987643233589338
0.021,0.0477716885507106,0.0006103515625,0.18910839719487252
0.0214999999999999,0.0477617233991622,0.00030517578125,0.18850036874834036
0.022,0.0477514043450355,0.00030517578125,0.1876500806100993
0.0224999999999999,0.0477412790060043,0.00030517578125,0.18696763468848437
0.023,0.0477312318980693,0.0006103515625,0.18632554244404384
0.0234999999999999,0.0477207116782665,0.00030517578125,0.18538275065858859
0.024,0.0477110221982002,0.00030517578125,0.18501767218438966
0.0244999999999999,0.0477012954652309,0.0,0.184517265662154
0.025,0.0476909838616848,0.00030517578125,0.18360761547234988
0.0254999999999999,0.0476809851825237,0.00030517578125,0.1829626665401773
0.026,0.0476706959307193,0.0,0.18213251777017414
0.0264999999999999,0.0476607196033,0.0,0.18153509220553307
0.027,0.0476505868136882,0.0006103515625,0.18081527025726002
0.0274999999999999,0.0476404875516891,0.0006103515625,0.18012504261221393
0.028,0.0476307496428489,0.00091552734375,0.17965020767494633
0.0284999999999999,0.0476203635334968,0.0006103515625,0.17872939029624943
0.029,0.0476104021072387,0.0006103515625,0.1781401454069071
0.0294999999999999,0.0476004295051097,0.0006103515625,0.17751716265145012
0.03,0.047589935362339,0.0006103515625,0.17657189646848584
0.0304999999999999,0.0475803166627883,0.00030517578125,0.17622446986988674
0.031,0.0475700572133064,0.00030517578125,0.17539434819917563
0.0314999999999999,0.0475601851940155,0.00030517578125,0.17484519566511864
0.032,0.0475498251616954,0.00030517578125,0.17397217863332873
0.0324999999999999,0.0475399419665336,0.00030517578125,0.1734427018802167
0.033,0.0475296750664711,0.00030517578125,0.17264449686946876
0.0334999999999999,0.0475194938480854,-0.00030517578125,0.17193633449860315
0.034,0.0475096367299556,0.00030517578125,0.17142875189575615
0.0344999999999999,0.0474995002150535,0.00030517578125,0.1707119562801956
0.035,0.0474891513586044,0.00030517578125,0.16988965865155892
0.0354999999999999,0.0474790930747985,0.00030517578125,0.16928114594577126
0.036,0.0474692769348621,0.0,0.1687944237600899
0.0364999999999999,0.0474592149257659,0.0006103515625,0.16811294069608332
0.037,0.047449205070734,0.00091552734375,0.1674698944763482
0.0374999999999999,0.0474390275776386,0.00091552734375,0.1667280818427666
0.038,0.0474288910627365,0.0,0.16603712896248882
0.0384999999999999,0.0474186353385448,0.00091552734375,0.16528871892958455
0.039,0.0474085286259651,0.0006103515625,0.1646542303197963
0.0394999999999999,0.0473985597491264,0.00091552734375,0.16409124344107523
0.04,0.0473884157836437,0.0,0.16340049916107696
0.0404999999999999,0.0473782494664192,0.0006103515625,0.16270946212876042
0.041,0.0473681762814521,0.0,0.162083922479656
0.0414999999999999,0.0473582968115806,0.0006103515625,0.16156217025740321
0.042,0.0473480261862278,0.0,0.16078042323915734
0.0424999999999999,0.0473380461335182,0.00030517578125,0.16020416109249508
0.043,0.0473279953002929,0.0006103515625,0.15956753593468134
0.0434999999999999,0.0473178476095199,-0.00030517578125,0.15887612968310486
0.044,0.0473076477646827,0.00030517578125,0.15817022894145696
0.0444999999999999,0.0472976267337799,0.0006103515625,0.1575845403434636
0.045,0.0472873635590076,0.00030517578125,0.1568459947352231
0.0454999999999999,0.0472775883972644,0.00030517578125,0.15640865733675607
0.046,0.047267735004425,0.0006103515625,0.15586970046931672
0.0464999999999999,0.0472574867308139,0.0006103515625,0.15508354463518806
0.047,0.0472476333379745,0.0006103515625,0.15456491284115323
0.0474999999999999,0.0472373440861702,0.0006103515625,0.1537693385035315
0.048,0.0472275838255882,0.0006103515625,0.15331854675677134
0.0484999999999999,0.0472169294953346,0.0006103515625,0.15231833268001124
0.049,0.0472070798277854,0.00030517578125,0.15187356735439764
0.0494999999999999,0.0471972674131393,0.0006103515625,0.15139836992471153
0.05,0.0471868179738521,0.0006103515625,0.15052609376282755
0.0504999999999999,0.0471768602728843,0.0006103515625,0.14999483684331874
0.051,0.0471668876707553,-0.00030517578125,0.14942914069938526
0.0514999999999999,0.047156274318695,0.0006103515625,0.1484925261475315
0.052,0.0471465662121772,0.00091552734375,0.14814442915655862
0.0524999999999999,0.0471363887190818,0.00030517578125,0.14746051639654437
0.053,0.0471264719963073,0.0006103515625,0.1469389026670769
0.0534999999999999,0.0471163019537925,0.0,0.14625345221002145
0.054,0.0471060462296009,0.00030517578125,0.14554008377071878
0.0544999999999999,0.0470965579152107,0.0006103515625,0.1452751736100919
0.055,0.0470861196517944,0.00030517578125,0.14439465508234406
0.0554999999999999,0.0470756515860557,0.00030517578125,0.14356952102070064
0.056,0.0470659397542476,0.0006103515625,0.14321526322225603
0.0564999999999999,0.0470556244254112,0.00030517578125,0.14246318131491742
0.057,0.0470456108450889,0.0006103515625,0.14191405649296188
0.0574999999999999,0.0470357462763786,-0.00030517578125,0.14142828519921663
0.058,0.0470259487628936,0.00030517578125,0.1409481499677551
0.0584999999999999,0.0470155775547027,0.001220703125,0.14012919936519147
0.059,0.0470051318407058,0.001220703125,0.13932724521580092
0.0595,0.0469952300190925,0.0006103515625,0.13886825695518248
0.06,0.0469851568341255,0.00030517578125,0.13827877663600632
0.0605,0.0469749718904495,0.00030517578125,0.13762605784324425
0.061,0.0469650477170944,0.0006103515625,0.13712778598307646
0.0615,0.0469548925757408,0.0006103515625,0.13648052071362216
0.062,0.0469448007643222,0.0006103515625,0.13588062985801916
0.0625,0.0469350554049015,0.0006103515625,0.13546952517704808
0.0629999999999999,0.0469245351850986,0.00030517578125,0.13459748551852327
0.0635,0.0469145141541957,0.0006103515625,0.1340626166808722
0.0639999999999999,0.0469042956829071,0.00030517578125,0.13340769728374527
0.0645,0.0468945391476154,-0.00030517578125,0.13301469569532698
0.0649999999999999,0.0468842945992946,0.00030517578125,0.1323131943798465
0.0655,0.0468740798532962,0.0006103515625,0.1316556918078474
0.0659999999999999,0.0468641817569732,0.0006103515625,0.1311838055012964
0.0665,0.0468536615371704,-0.00030517578125,0.1303535855057453
0.0669999999999999,0.0468440987169742,0.00030517578125,0.13008998935018068
0.0675,0.0468341261148452,0.0006103515625,0.129534609912848
0.0679999999999999,0.0468238219618797,0.00091552734375,0.1287992326217709
0.0685,0.046813741326332,0.0,0.12821997876565167
0.0689999999999999,0.0468034595251083,0.00030517578125,0.12753540344956374
0.0695,0.0467936396598815,0.0006103515625,0.12711953360643344
0.0699999999999999,0.0467830523848533,0.0006103515625,0.12626367884197515
0.0705,0.0467735342681407,0.00030517578125,0.12603011186748553
0.0709999999999999,0.0467635169625282,0.0006103515625,0.12545543171684545
0.0715,0.0467530339956283,0.00030517578125,0.12464132951618936
0.0719999999999999,0.0467430986464023,0.0006103515625,0.12416954428601833
0.0725,0.0467329435050487,0.00091552734375,0.12356024303067947
0.0729999999999999,0.0467229299247264,0.0006103515625,0.12303391320139573
0.0735,0.0467127487063407,0.00030517578125,0.12241247906058242
0.0739999999999999,0.0467025153338909,0.0006103515625,0.12177711297163069
0.0745,0.0466931350529193,0.00091552734375,0.12159792907084237
0.0749999999999999,0.0466824695467948,0.00030517578125,0.12066988673387417
0.0755,0.0466724932193756,0.00030517578125,0.12017896856068508
0.0759999999999999,0.0466623976826667,0.0,0.11961092149140524
0.0765,0.0466519556939601,0.00030517578125,0.11886720630484834
0.0769999999999999,0.0466422103345394,0.00030517578125,0.11852060699047633
0.0775,0.0466318577527999,0.00030517578125,0.11781693668311406
0.0779999999999999,0.0466220527887344,0.0,0.1174249470472695
0.0785,0.0466117449104785,0.00091552734375,0.11674324251709454
0.0789999999999999,0.046601440757513,0.0006103515625,0.11609228388010266
0.0795,0.0465917848050594,0.0,0.11579000809520953
0.0799999999999999,0.0465813167393207,0.00030517578125,0.11502289407210033
0.0805,0.0465712659060955,0.00030517578125,0.11451273733233011
0.0809999999999999,0.0465612933039665,0.00030517578125,0.11403317573833228
0.0815,0.046551413834095,0.00030517578125,0.11358653569119694
0.0819999999999999,0.046541154384613,-0.00030517578125,0.11292849155432987
0.0825,0.0465308092534542,0.0006103515625,0.11225187326955872
0.0829999999999999,0.0465209856629371,0.00091552734375,0.11186404099237313
0.0835,0.0465108379721641,0.0,0.111282419261101
0.0839999999999999,0.0465007163584232,0.0,0.11072280242290514
0.0845,0.0464909933507442,0.0,0.11036507941927651
0.0849999999999999,0.0464807860553264,0.0006103515625,0.10972985456801154
0.0855,0.0464706532657146,0.0006103515625,0.10915395996963166
0.0859999999999999,0.0464603714644908,0.0,0.10851357934267644
0.0865,0.046450387686491,-0.00030517578125,0.10803981679757943
0.0869999999999999,0.0464406944811344,0.00091552734375,0.10769649650778815
0.0875,0.0464303158223629,0.0006103515625,0.10697958179335505
0.0879999999999999,0.0464205183088779,0.0006103515625,0.1065863466248677
0.0885,0.0464102365076541,0.00030517578125,0.1059304942308065
0.0889999999999999,0.0464000180363655,0.0006103515625,0.10533242909690313
0.0895,0.0463902465999126,0.00030517578125,0.10496704644576166
0.0899999999999999,0.0463796108961105,0.00030517578125,0.10415024618713337
0.0905,0.0463700965046882,0.00030517578125,0.10393366802232715
0.0909999999999999,0.0463599301874637,0.00030517578125,0.103340259527555
0.0915,0.0463497228920459,0.00091552734375,0.10274190338493693
0.0919999999999999,0.0463399775326252,0.00030517578125,0.1023818883618719
0.0925,0.0463295355439186,0.0006103515625,0.10165658522209378
0.0929999999999999,0.0463197715580463,0.00030517578125,0.1012979378282582
0.0935,0.0463094785809516,-0.00030517578125,0.10065650224774245
0.0939999999999999,0.0462993308901786,0.0006103515625,0.10010982090513781
0.0945,0.0462896078824996,0.00030517578125,0.09977218494929625
0.0949999999999999,0.0462790951132774,0.0006103515625,0.09902562643855986
0.0955,0.0462691038846969,0.00030517578125,0.09857125749145847
0.0959999999999999,0.0462590903043746,0.0,0.09809539723923535
0.0965,0.0462488867342472,0.00030517578125,0.09752369141676002
0.0969999999999999,0.046238973736763,0.0006103515625,0.0971012722377432
0.0975,0.0462291799485683,0.00030517578125,0.09671916751277067
0.0979999999999999,0.0462190434336662,0.00030517578125,0.09615353695410486
0.0985,0.0462087281048297,0.0006103515625,0.09551792789793677
0.0989999999999999,0.0461984761059284,0.0,0.09493768521894011
0.0995,0.0461886003613472,0.00030517578125,0.09454782682038047
0.0999999999999999,0.0461780205368995,0.00030517578125,0.09381052139579167
0.1005,0.0461683571338653,0.0,0.0935406317342799
0.1009999999999999,0.0461582317948341,0.0006103515625,0.09301443078778769
0.1015,0.0461482778191566,0.0006103515625,0.09257408685429522
0.1019999999999999,0.0461379587650299,0.00030517578125,0.09195600235132217
0.1025,0.0461278222501277,0.0,0.09144354490707328
0.1029999999999999,0.0461180955171585,0.00030517578125,0.09112241966539195
0.1035,0.046107679605484,-0.00030517578125,0.09045676691949668
0.1039999999999999,0.0460976138710975,0.00030517578125,0.08998325928684991
0.1045,0.0460879951715469,0.0,0.08971016999396071
0.1049999999999999,0.0460776649415493,0.0006103515625,0.08907575428525369
0.1055,0.0460675358772277,0.0006103515625,0.08855980137415927
0.1059999999999999,0.0460574552416801,0.0006103515625,0.08807164903176372
0.1065,0.0460474714636802,0.0,0.08762794514881075
0.1069999999999999,0.0460374318063259,0.0,0.08715258759883357
0.1075,0.0460271760821342,0.00030517578125,0.0865799838411202
0.1079999999999999,0.046017188578844,0.0006103515625,0.08614411593436984
0.1085,0.0460070967674255,0.0006103515625,0.08565517536760282
0.1089999999999999,0.0459967479109764,0.0006103515625,0.08505429291105626
0.1095,0.0459869913756847,0.0006103515625,0.08473791336148105
0.1099999999999999,0.045976635068655,0.0006103515625,0.08412848879110561
0.1105,0.0459666848182678,0.001220703125,0.08372143637036886
0.1109999999999999,0.0459567494690418,0.0006103515625,0.08330981424302292
0.1115,0.0459464117884635,0.0006103515625,0.08271178286663311
0.1119999999999999,0.0459365248680114,0.0,0.08233372996032337
0.1125,0.0459262989461422,0.00030517578125,0.0817931878916502
0.1129999999999999,0.0459159612655639,0.0006103515625,0.08121681010176046
0.1135,0.0459060631692409,0.0,0.0808492005085887
0.1139999999999999,0.0458960719406604,0.00030517578125,0.08042474560154396
0.1145,0.0458859913051128,0.00030517578125,0.07995594226454387
0.1149999999999999,0.0458757989108562,0.00030517578125,0.07944036517875772
0.1155,0.0458655878901481,0.0006103515625,0.07892518151794653
0.1159999999999999,0.0458558909595012,0.00030517578125,0.07864016175619949
0.1165,0.0458452329039573,0.0,0.07791635373853718
0.1169999999999999,0.0458351448178291,0.00030517578125,0.07748042044925009
0.1175,0.0458251163363456,0.0006103515625,0.07706579308449595
0.118,0.0458150133490562,0.0006103515625,0.07661287892687607
0.1185,0.0458052121102809,0.0,0.07628872836801756
0.119,0.0457945987582206,0.00030517578125,0.07560083778533092
0.1195,0.0457850061357021,0.0006103515625,0.07538115354066272
0.12,0.0457745566964149,0.0006103515625,0.07476424412092927
0.1205,0.0457645840942859,0.00030517578125,0.07437406842524848
0.121,0.0457545667886734,0.0006103515625,0.07395618603499357
0.1215,0.0457443334162235,0.0006103515625,0.07344383328366287
0.122,0.0457345135509967,0.00030517578125,0.07311448782800062
0.1225,0.045724269002676,0.00030517578125,0.0725910468783569
0.123,0.0457145497202873,0.00030517578125,0.07229822272001359
0.1235,0.0457044467329978,0.0006103515625,0.07182617052906187
0.124,0.0456937700510025,0.00030517578125,0.07112398341989237
0.1245,0.0456842556595802,0.00030517578125,0.07093854898796587
0.125,0.0456740334630012,0.0006103515625,0.07042472287983863
0.1254999999999999,0.0456638559699058,-0.00030517578125,0.06994172712219278
0.126,0.0456539317965507,0.00030517578125,0.06956967151090541
0.1264999999999999,0.0456438660621643,0.0,0.0691311578033182
0.127,0.0456339232623577,0.0,0.0687439203968427
0.1274999999999999,0.0456234142184257,0.0006103515625,0.06812209174962774
0.128,0.0456137172877788,0.0,0.06785649881247122
0.1284999999999999,0.0456037893891334,0.0,0.06747500872516139
0.129,0.0455933958292007,0.0006103515625,0.06690101506998075
0.1294999999999999,0.0455835871398448,0.0006103515625,0.0665827495275336
0.13,0.0455733314156532,0.00030517578125,0.0660713442530707
0.1304999999999999,0.0455631241202354,0.0006103515625,0.06559276203890332
0.131,0.0455530621111393,0.00030517578125,0.06518037795616387
0.1314999999999999,0.0455429218709468,0.0006103515625,0.06473570316837013
0.132,0.0455331392586231,0.0006103515625,0.06443558979725224
0.1324999999999999,0.0455227419734001,0.00030517578125,0.06387827063396843
0.133,0.0455128215253353,0.00091552734375,0.0635281185943678
0.1334999999999999,0.0455030314624309,0.00030517578125,0.06322038351010756
0.134,0.0454924702644348,0.00030517578125,0.06259834192001304
0.1344999999999999,0.0454824157059192,0.0006103515625,0.06220203325888775
0.135,0.0454725362360477,0.00030517578125,0.06187130686402101
0.1354999999999999,0.0454621240496635,0.0006103515625,0.061324984091969924
0.136,0.0454522147774696,0.00030517578125,0.06099134987768512
0.1364999999999999,0.0454418361186981,0.00030517578125,0.06046750876378485
0.137,0.045432262122631,0.0,0.06026706744706312
0.1374999999999999,0.0454218164086341,0.00091552734375,0.05970805902969342
0.138,0.0454116091132164,0.00030517578125,0.05926158265983384
0.1384999999999999,0.045401707291603,0.0006103515625,0.05893652381150098
0.139,0.0453913807868957,0.0,0.05844135365686444
0.1394999999999999,0.0453815460205078,0.00030517578125,0.05814448888268588
0.14,0.0453708879649639,0.00030517578125,0.05752622054516473
0.1404999999999999,0.0453611426055431,0.00030517578125,0.05727675010696229
0.141,0.0453514568507671,0.00030517578125,0.05702956416563362
0.1414999999999999,0.0453411415219306,0.00030517578125,0.056530044129052374
0.142,0.0453312955796718,0.00030517578125,0.056218760200984395
0.1424999999999999,0.0453208535909652,0.00030517578125,0.05567735937920822
0.143,0.0453112311661243,0.00091552734375,0.05545729846793116
0.1434999999999999,0.0453007407486438,0.0006103515625,0.054898512830518914
0.144,0.0452904850244522,0.00030517578125,0.05444855959746789
0.1444999999999999,0.0452807918190956,0.0006103515625,0.05421075203255165
0.145,0.0452706553041935,0.0,0.0537932138715473
0.1454999999999999,0.0452604703605175,0.00030517578125,0.05336345520465253
0.146,0.0452502332627773,0.0006103515625,0.05292148635579417
0.1464999999999999,0.0452400669455528,0.00030517578125,0.05251245814682581
0.147,0.0452302284538745,0.00030517578125,0.052224362063424144
0.1474999999999999,0.0452201105654239,-0.00030517578125,0.05182544680886314
0.148,0.0452101603150367,0.00030517578125,0.051489074462830894
0.1484999999999999,0.0451997518539428,0.00030517578125,0.050986593348629664
0.149,0.04518948122859,0.00030517578125,0.05054936475404564
0.1494999999999999,0.0451798066496849,0.00030517578125,0.0503290745812323
0.15,0.0451695062220096,0.00091552734375,0.04987082580938543
0.1504999999999999,0.045159425586462,0.00030517578125,0.04950023568468661
0.151,0.0451494865119457,0.00030517578125,0.04917913698449758
