time [s],Lmtc [m],STIM [ ],Fsee [N]
0.0,0.0480148531496524,0.00030517578125,0.23867459981165592
0.0004999999999999,0.0480150207877159,0.00030517578125,0.23880799808904976
0.001,0.0480147898197174,0.0006103515625,0.23861957434085249
0.0014999999999999,0.0480149462819099,0.00030517578125,0.23874633112387397
0.002,0.0480150319635868,0.00091552734375,0.23881156827456376
0.0024999999999999,0.0480146035552024,0.00030517578125,0.23846654429826367
0.003,0.0480148866772651,0.0006103515625,0.23870335362157036
0.0034999999999999,0.0480149388313293,0.0,0.2387438225428738
0.004,0.0480144657194614,0.0006103515625,0.23836914284127841
0.0044999999999999,0.048015009611845,0.0,0.23881810277991222
0.005,0.0480149202048778,0.00091552734375,0.23874106970044412
0.0054999999999999,0.048014722764492,0.00091552734375,0.23858117791255692
0.006,0.0480150170624256,0.0006103515625,0.23881922596326507
0.0064999999999999,0.0480144470930099,0.0,0.23836406629065793
0.007,0.0480137132108211,0.0,0.23781539515868907
0.0074999999999999,0.0480120666325092,0.0006103515625,0.23660380931164676
0.008,0.0480088628828525,0.0,0.23428709873482517
0.0084999999999999,0.0480040162801742,-0.00030517578125,0.23093281579472585
0.009,0.0479965507984161,0.0006103515625,0.22595449785825458
0.0094999999999999,0.0479874014854431,0.0006103515625,0.2203700853452218
0.01,0.047976516187191,0.0006103515625,0.2144138090562228
0.0104999999999999,0.0479635968804359,0.0006103515625,0.20826946143176817
0.011,0.0479494072496891,0.0006103515625,0.2029129978528577
0.0114999999999999,0.0479347929358482,0.00030517578125,0.1990331306255659
0.012,0.0479190833866596,0.00030517578125,0.19593558979420933
0.0124999999999999,0.0479033961892128,0.00091552734375,0.1939433088642979
0.013,0.047886986285448,0.00030517578125,0.19210090625055165
0.0134999999999999,0.0478707887232303,0.00091552734375,0.1907701256980585
0.014,0.0478546433150768,0.00030517578125,0.18955458933353045
0.0144999999999999,0.0478382483124733,0.00030517578125,0.18824345378654475
0.015,0.0478221289813518,0.0006103515625,0.1871466266542513
0.0154999999999999,0.0478058084845542,0.00030517578125,0.18590885896744902
0.016,0.0477901399135589,0.0,0.18503838707544773
0.0164999999999999,0.0477746315300464,-0.00030517578125,0.18407703253668045
0.017,0.0477585382759571,0.00030517578125,0.18274218226160518
0.0174999999999999,0.0477429553866386,0.0,0.18177491138031499
0.018,0.0477274172008037,0.00030517578125,0.18073975007302906
0.0184999999999999,0.0477116517722606,0.00030517578125,0.17955854263383136
0.019,0.047696016728878,0.0006103515625,0.17848132286217747
0.0194999999999999,0.0476804450154304,0.0006103515625,0.17741850983504068
0.02,0.0476648062467575,0.0006103515625,0.17631082441462226
0.0204999999999999,0.0476493425667285,0.0,0.17529191104207392
0.021,0.0476334989070892,0.00030517578125,0.17405260294740618
0.0214999999999999,0.0476179867982864,0.0,0.17305257105062802
0.022,0.0476022288203239,0.00091552734375,0.17188791357809982
0.0224999999999999,0.047586865723133,0.0006103515625,0.1709583329064871
0.023,0.0475711300969123,0.00030517578125,0.16977405241655025
0.0234999999999999,0.0475554130971431,0.00030517578125,0.16865427946562953
0.024,0.047539796680212,0.00030517578125,0.16760553639013903
0.0244999999999999,0.047524344176054,0.00091552734375,0.16662910453837618
0.025,0.0475086607038974,0.0006103515625,0.16549795273508072
0.0254999999999999,0.0474930442869663,0.0,0.1644343049255855
0.026,0.0474771186709404,0.00030517578125,0.1632215751234956
0.0264999999999999,0.0474615506827831,0.00030517578125,0.16225213412046527
0.027,0.0474460199475288,0.0006103515625,0.16126020357079401
0.0274999999999999,0.0474305190145969,0.00030517578125,0.1602581023248742
0.028,0.0474147200584411,0.0006103515625,0.15909004693891748
0.0284999999999999,0.0473994649946689,0.0,0.1582490005997904
0.029,0.0473834425210952,0.0006103515625,0.15694011168253985
0.0294999999999999,0.0473683066666126,0.0006103515625,0.15618589775798303
0.03,0.0473526157438755,0.00030517578125,0.15503134061391022
0.0304999999999999,0.0473367236554622,0.00030517578125,0.1538441457974554
0.031,0.04732146859169,0.00030517578125,0.1530387668821914
0.0314999999999999,0.047305878251791,0.0006103515625,0.15196908023802735
0.032,0.0472900792956352,0.0006103515625,0.15082701218776845
0.0324999999999999,0.047274611890316,-0.00030517578125,0.14990353110851626
0.033,0.0472585894167423,0.0006103515625,0.14867240306866072
0.0334999999999999,0.0472434684634208,0.00091552734375,0.14796689095241836
0.034,0.0472279898822307,0.00091552734375,0.14695788875714857
0.0344999999999999,0.0472118072211742,0.0006103515625,0.14561726142526438
0.035,0.0471968203783035,0.0006103515625,0.14499657928360563
0.0354999999999999,0.0471809580922126,0.00030517578125,0.1437914607704497
0.036,0.0471654497087001,0.0006103515625,0.14284738165548258
0.0364999999999999,0.0471500046551227,0.0006103515625,0.14191284949268979
0.037,0.0471340902149677,0.0006103515625,0.14073522491551307
0.0374999999999999,0.0471184849739074,0.00030517578125,0.1397848170505043
0.038,0.0471030436456203,0.00030517578125,0.13889892743284732
0.0384999999999999,0.0470870845019817,0.0006103515625,0.13772313576527728
0.039,0.0470717251300811,0.00030517578125,0.13691608368261227
0.0394999999999999,0.0470562167465686,0.00030517578125,0.13596641755825295
0.04,0.0470403768122196,0.00030517578125,0.13485449656179616
0.0404999999999999,0.0470250025391578,0.00030517578125,0.13402310280120985
0.041,0.0470090135931968,0.0006103515625,0.13284946594337155
0.0414999999999999,0.046993400901556,0.00030517578125,0.13193984825667993
0.042,0.0469780005514621,0.00030517578125,0.13110463299589134
0.0424999999999999,0.0469623357057571,0.0,0.13009715331895744
0.043,0.046946994960308,0.00030517578125,0.1292631844365175
0.0434999999999999,0.0469309799373149,0.00030517578125,0.1280734107462791
0.044,0.0469154827296733,0.00030517578125,0.12722190285213272
0.0444999999999999,0.0469002202153205,0.00030517578125,0.12644408541474275
0.045,0.0468844957649707,0.0,0.12538910301188666
0.0454999999999999,0.0468689203262329,0.00030517578125,0.12445490555405733
0.046,0.0468535758554935,0.00030517578125,0.12362505646562295
0.0464999999999999,0.0468377247452735,0.00030517578125,0.12252625971111465
0.047,0.0468223914504051,0.00030517578125,0.12172808528981888
0.0474999999999999,0.0468064658343791,0.00030517578125,0.120612335857535
0.048,0.0467910580337047,0.001220703125,0.11980937064142919
0.0484999999999999,0.0467751808464527,0.0006103515625,0.11875193914040513
0.049,0.0467596352100372,0.0006103515625,0.117896374562634
0.0494999999999999,0.0467443205416202,0.0006103515625,0.11712370455383052
0.05,0.0467283949255943,0.00030517578125,0.11602828117283934
0.0504999999999999,0.0467128492891788,0.00030517578125,0.11517407674170345
0.051,0.0466972924768924,0.0006103515625,0.11429671392696208
0.0514999999999999,0.0466816425323486,0.0,0.11337196524150059
0.052,0.0466660521924495,0.00030517578125,0.11248230856152264
0.0524999999999999,0.04665033146739,0.0006103515625,0.11153755908377552
0.053,0.0466348119080066,0.00091552734375,0.11069896755904758
0.0534999999999999,0.0466191098093986,0.00030517578125,0.1097633845305624
0.054,0.0466032922267913,0.0,0.10879542501812603
0.0544999999999999,0.0465878657996654,0.0006103515625,0.10802909203682237
0.055,0.0465721599757671,0.0,0.10710178342165554
0.0554999999999999,0.0465565472841262,0.00030517578125,0.10623513847319725
0.056,0.046541042625904,0.0006103515625,0.10541408958388143
0.0564999999999999,0.0465252324938774,0.0,0.10444157645791523
0.057,0.0465097688138484,-0.0006103515625,0.10365975019741898
0.0574999999999999,0.0464946553111076,0.00030517578125,0.10300539445920744
0.058,0.0464788116514682,0.0006103515625,0.10196612644168793
0.0584999999999999,0.0464631170034408,0.0,0.10105873451153893
0.059,0.0464478433132171,0.00030517578125,0.10035049980947283
0.0595,0.0464317463338375,0.00030517578125,0.09923841055660748
0.06,0.0464162677526474,0.0,0.09848394304457074
0.0605,0.0464006438851356,0.001220703125,0.0976358357219569
0.061,0.0463849566876888,0.00030517578125,0.09676925985811055
0.0615,0.0463696531951427,0.00030517578125,0.09607219819385503
0.062,0.0463538542389869,0.00030517578125,0.09512510964526984
0.0625,0.0463384464383125,0.0006103515625,0.09437909775322013
0.0629999999999999,0.0463229902088642,0.0,0.09358963659244664
0.0635,0.0463073551654815,0.00030517578125,0.09271348598283595
0.0639999999999999,0.0462920181453228,0.00030517578125,0.09198564393082011
0.0645,0.0462762266397476,0.00030517578125,0.09104123161912123
0.0649999999999999,0.0462603159248828,0.0,0.09008596529995004
0.0655,0.0462451688945293,0.0006103515625,0.08949764746359554
0.0659999999999999,0.046229563653469,0.0,0.08865042002743559
0.0665,0.0462137423455715,0.00030517578125,0.0877273590957981
0.0669999999999999,0.0461981147527694,0.0006103515625,0.08692354571824797
0.0675,0.0461823567748069,0.0006103515625,0.08606423126227299
0.0679999999999999,0.0461671538650989,0.0006103515625,0.08545641961828174
0.0685,0.0461514554917812,0.0,0.08459179181608337
0.0689999999999999,0.0461356937885284,0.00030517578125,0.08372334567633455
0.0695,0.0461204685270786,0.00030517578125,0.08310152007105825
0.0699999999999999,0.0461046807467937,0.0006103515625,0.08220346220380927
0.0705,0.0460888855159282,0.00091552734375,0.0813367192541707
0.0709999999999999,0.0460734516382217,0.00030517578125,0.08064418200379292
0.0715,0.0460578016936779,0.00030517578125,0.07984255968843489
0.0719999999999999,0.046042114496231,0.0006103515625,0.07903439658714297
0.0725,0.0460269749164581,0.0006103515625,0.07846113378063366
0.0729999999999999,0.0460110232234001,0.00091552734375,0.07750929244678852
0.0735,0.0459954887628555,-0.00030517578125,0.07677913938994231
0.0739999999999999,0.0459797084331512,0.0006103515625,0.07594436282107944
0.0745,0.0459640026092529,0.0006103515625,0.07516076305494457
0.0749999999999999,0.0459485128521919,0.00030517578125,0.074471393838015
0.0755,0.0459330454468727,0.0006103515625,0.07377714265401145
0.0759999999999999,0.0459171719849109,0.00030517578125,0.07291019665711138
0.0765,0.0459018163383007,0.00091552734375,0.0722813324404047
0.0769999999999999,0.0458857789635658,0.00030517578125,0.07135740751851163
0.0775,0.0458707399666309,0.0006103515625,0.07087029302762807
0.0779999999999999,0.0458549112081527,0.00030517578125,0.07001539549743345
0.0785,0.0458391718566417,0.00030517578125,0.06922787203207142
0.0789999999999999,0.0458237677812576,0.00091552734375,0.06858608847192135
0.0795,0.0458079017698764,0.0,0.0677490857809725
0.0799999999999999,0.0457922928035259,0.00091552734375,0.0670402569361468
0.0805,0.0457767061889171,0.001220703125,0.06633743148219216
0.0809999999999999,0.0457612797617912,0.0006103515625,0.06569290127546998
0.0815,0.0457457154989242,0.0,0.06498227486953674
0.0819999999999999,0.0457300432026386,0.0,0.06423379171400782
0.0825,0.0457143858075141,0.00030517578125,0.06350359398833087
0.0829999999999999,0.0456986539065837,0.00030517578125,0.06275405680424387
0.0835,0.0456831008195877,0.0006103515625,0.06208260825935345
0.0839999999999999,0.0456676706671714,0.0,0.0614514654433477
0.0845,0.0456520915031433,0.0006103515625,0.06075311222744093
0.0849999999999999,0.0456365495920181,0.0006103515625,0.0600722499688653
0.0855,0.0456209555268287,0.0,0.059373910685626724
0.0859999999999999,0.0456052049994468,0.00030517578125,0.05862495987724186
0.0865,0.0455895327031612,0.0006103515625,0.05792124364590683
0.0869999999999999,0.0455739945173263,0.0,0.057272307631048736
0.0875,0.045558676123619,0.00030517578125,0.05669713866758626
0.0879999999999999,0.0455429889261722,0.0,0.05597189497691378
0.0885,0.0455276295542717,0.001220703125,0.05537747216402156
0.0889999999999999,0.0455117709934711,0.00030517578125,0.05459551158793675
0.0895,0.045496217906475,0.0,0.053949080920179936
0.0899999999999999,0.0454803295433521,0.00091552734375,0.05318625436151853
0.0905,0.0454647690057754,0.00091552734375,0.0525599321715246
0.0909999999999999,0.0454493053257465,0.0,0.051962714567722834
0.0915,0.0454334169626235,0.00030517578125,0.05121139182087357
0.0919999999999999,0.0454181097447872,0.00030517578125,0.050680686118650224
0.0925,0.045402280986309,0.00030517578125,0.049953488528331154
0.0929999999999999,0.0453866273164749,0.00030517578125,0.04930489659034392
0.0935,0.0453712008893489,0.00091552734375,0.04873577899775729
0.0939999999999999,0.0453555062413215,0.00091552734375,0.04806623860552346
0.0945,0.0453400984406471,0.0006103515625,0.047501733266863244
0.0949999999999999,0.0453241281211376,0.00030517578125,0.046743179852723186
0.0955,0.045308418571949,0.00091552734375,0.04609743043482051
0.0959999999999999,0.0452930815517902,0.00030517578125,0.045578779468210956
0.0965,0.045277003198862,0.0006103515625,0.044804761882981596
0.0969999999999999,0.0452616550028324,0.0006103515625,0.044296030322025566
0.0975,0.0452466048300266,0.00091552734375,0.04386382183064477
0.0979999999999999,0.0452305749058723,0.00030517578125,0.04309068208887349
0.0985,0.0452151782810688,0.00030517578125,0.042550833493497364
0.0989999999999999,0.0451994352042675,0.0006103515625,0.041893988339135144
0.0995,0.0451835244894027,0.0006103515625,0.041198263004250474
0.0999999999999999,0.0451682806015014,0.0,0.040728284243716356
0.1005,0.0451524555683136,0.0006103515625,0.040061137292028696
0.1009999999999999,0.0451366566121578,0.00091552734375,0.039418624790044696
0.1015,0.0451213791966438,0.0006103515625,0.03894483162545124
0.1019999999999999,0.0451057218015193,0.0,0.0383396077626437
0.1025,0.0450898893177509,0.0006103515625,0.03769009607471857
0.1029999999999999,0.0450741685926914,0.00030517578125,0.03708924160921744
0.1035,0.0450585447251796,0.00030517578125,0.03652352914394207
0.1039999999999999,0.0450429208576679,0.00030517578125,0.03595915640612988
0.1045,0.0450271517038345,0.0,0.03535426300653073
0.1049999999999999,0.0450117550790309,0.00091552734375,0.03486497127544295
0.1055,0.0449963919818401,0.0006103515625,0.03437622544832696
0.1059999999999999,0.0449801571667194,0.00030517578125,0.033631809671736304
0.1065,0.0449652783572673,0.0006103515625,0.033300779597097784
0.1069999999999999,0.0449498072266578,0.0006103515625,0.032769934327144465
0.1075,0.0449338965117931,0.0006103515625,0.03211798587598785
0.1079999999999999,0.044918518513441,0.00030517578125,0.03163303578605894
0.1085,0.0449028797447681,0.0006103515625,0.031070850609494764
0.1089999999999999,0.0448872372508049,0.00030517578125,0.030514462752981655
0.1095,0.0448718070983886,0.00030517578125,0.03002164089570536
0.1099999999999999,0.0448559410870075,0.0006103515625,0.02940937469446288
0.1105,0.0448409989476203,0.00030517578125,0.029056853541259312
0.1109999999999999,0.0448248982429504,0.0006103515625,0.028377202588503955
0.1115,0.0448093749582767,0.00030517578125,0.0278745799739168
0.1119999999999999,0.0447940081357955,0.00030517578125,0.027412733480283863
0.1125,0.0447778925299644,0.0006103515625,0.026755299047218295
0.1129999999999999,0.0447626411914825,0.0006103515625,0.026340883402977754
0.1135,0.0447472669184207,0.0,0.0258845443091684
0.1139999999999999,0.0447313748300075,0.00091552734375,0.025295566562723998
0.1145,0.0447159595787525,0.00030517578125,0.024839440364836134
0.1149999999999999,0.0447004251182079,0.0,0.024351024971991205
0.1155,0.0446846857666969,0.00030517578125,0.023815212113408004
0.1159999999999999,0.0446693338453769,0.00030517578125,0.023381520432070507
0.1165,0.0446533560752868,0.0006103515625,0.022795487285149494
0.1169999999999999,0.0446378774940967,0.0006103515625,0.022343870406057502
0.1175,0.0446223318576812,0.00030517578125,0.021875992068360186
0.118,0.0446062982082366,0.0006103515625,0.02129819253961333
0.1185,0.0445909798145294,0.00091552734375,0.020899288605727234
0.119,0.0445755235850811,0.00091552734375,0.020462246372218516
0.1195,0.0445599146187305,0.00030517578125,0.019990102637398505
0.12,0.0445444881916046,0.00030517578125,0.01956236750389695
0.1205,0.0445286966860294,0.0006103515625,0.019054277966976348
0.121,0.0445132069289684,0.00030517578125,0.01862114935146024
0.1215,0.0444976054131984,0.0006103515625,0.018164754939967054
0.122,0.0444821268320083,0.00091552734375,0.017738369210824015
0.1225,0.044466309249401,0.0006103515625,0.017242662017318916
0.123,0.0444507487118244,0.0006103515625,0.01680990938545263
0.1235,0.0444351360201835,0.00091552734375,0.016368977874195268
0.124,0.0444197207689285,0.00091552734375,0.01597155841259684
0.1245,0.0444038622081279,0.0,0.015486023806901885
0.125,0.0443883761763572,0.0006103515625,0.015083642482798441
0.1254999999999999,0.0443727858364582,0.00030517578125,0.014662080408884786
0.126,0.0443571023643016,0.00030517578125,0.014226565301049663
0.1264999999999999,0.0443416126072406,0.0,0.013832938481241596
0.127,0.0443260371685028,0.00030517578125,0.013424884189815186
0.1274999999999999,0.0443101152777671,0.0006103515625,0.012957611672716536
0.128,0.0442948341369628,0.00091552734375,0.012615755139626691
0.1284999999999999,0.0442790910601615,0.00030517578125,0.012189476488429555
0.129,0.0442634783685207,0.0,0.011793084128997358
0.1294999999999999,0.0442476421594619,0.00091552734375,0.01136297858725951
0.13,0.044232077896595,0.00030517578125,0.010986973476040997
0.1304999999999999,0.0442166104912757,0.0006103515625,0.010629817194258201
0.131,0.0442007668316364,0.00030517578125,0.010213083897710534
0.1314999999999999,0.0441853962838649,0.00091552734375,0.009879893058921617
0.132,0.0441698543727397,0.0006103515625,0.009519599224230133
0.1324999999999999,0.0441541485488414,0.0006103515625,0.009137604107786492
0.133,0.0441384613513946,0.0006103515625,0.00876478402231266
0.1334999999999999,0.0441228188574314,0.0006103515625,0.008404309647228611
0.134,0.0441073849797248,0.0,0.008078913751208788
0.1344999999999999,0.0440917164087295,0.0006103515625,0.0077221604145949405
0.135,0.0440761670470237,0.00030517578125,0.00738767734465679
0.1354999999999999,0.0440607219934463,0.00030517578125,0.0070713110706252845
0.136,0.0440450087189674,0.0006103515625,0.006722116910357818
0.1364999999999999,0.0440297611057758,0.0006103515625,0.006439881704570855
0.137,0.0440139546990394,0.0006103515625,0.006087559705098759
0.1374999999999999,0.043998010456562,0.0006103515625,0.005727026054383493
0.138,0.0439827553927898,0.0006103515625,0.005458787017464694
0.1384999999999999,0.0439672730863094,0.0006103515625,0.005165106081103376
0.139,0.0439515225589275,0.0006103515625,0.00484553024895862
0.1394999999999999,0.0439360551536083,0.0,0.004564879154495356
0.14,0.0439205281436443,0.0006103515625,0.004282463183080293
0.1404999999999999,0.0439044423401355,0.00030517578125,0.003948456885188916
0.141,0.0438891686499118,0.00030517578125,0.0037069685682783043
0.1414999999999999,0.0438736863434314,0.00030517578125,0.0034484833327032257
0.142,0.0438576824963092,0.00091552734375,0.0031478867530079922
0.1424999999999999,0.0438423790037632,0.00030517578125,0.0029205533374443075
0.143,0.0438264682888984,0.0006103515625,0.0026462733303047
0.1434999999999999,0.0438110344111919,0.00030517578125,0.002421312843070895
0.144,0.043795395642519,0.0006103515625,0.0021869100402614194
0.1444999999999999,0.0437797755002975,0.0006103515625,0.001962594409907339
0.145,0.0437646396458148,0.00030517578125,0.0017805006521494312
0.1454999999999999,0.0437485426664352,0.0,0.0015408270252542126
0.146,0.0437329895794391,0.0006103515625,0.001348810641755551
0.1464999999999999,0.0437175258994102,0.00030517578125,0.0011714607846622612
0.147,0.043701883405447,0.0006103515625,0.0009941951458437334
0.1474999999999999,0.0436863452196121,0.0006103515625,0.0008336054524188453
0.148,0.0436710976064205,0.00091552734375,0.0006969531592771023
0.1484999999999999,0.0436548702418804,0.0006103515625,0.00053185762268892
0.149,0.0436395481228828,0.00091552734375,0.0004170091618831169
0.1494999999999999,0.0436236821115016,0.0006103515625,0.00029814894149130097
0.15,0.0436080805957317,0.00091552734375,0.00020361581671135158
