time [s],Lmtc [m],STIM [ ],Fsee [N]
0.0,0.0460066199302673,0.0,0.14339243337660207
0.0004999999999999,0.046006616204977,0.00030517578125,0.14338997363741446
0.001,0.0460068881511688,0.00030517578125,0.14355945105792375
0.0014999999999999,0.0460063368082046,0.00030517578125,0.14321307911619338
0.002,0.0460069552063941,0.00030517578125,0.14360218717585002
0.0024999999999999,0.0460068471729755,0.00030517578125,0.14353128595564651
0.003,0.04600665345788,0.0,0.14340818134553152
0.0034999999999999,0.0460066795349121,0.00030517578125,0.1434241327984389
0.004,0.0460066050291061,0.0006103515625,0.143377181221072
0.0044999999999999,0.046006865799427,0.0006103515625,0.14353994317357247
0.005,0.0460063144564628,0.0,0.14319480368976048
0.0054999999999999,0.0460068508982658,0.00030517578125,0.1435335509456934
0.006,0.0460067652165889,0.00030517578125,0.14347764813075337
0.0064999999999999,0.046006441116333,0.0006103515625,0.14327445212256448
0.007,0.0460066758096218,0.0006103515625,0.1434235017782626
0.0074999999999999,0.0460060015320777,0.00091552734375,0.14300596502130059
0.008,0.0460055172443389,0.0,0.14272013050152602
0.0084999999999999,0.0460038483142852,0.0006103515625,0.14171601158103728
0.009,0.0460018292069435,0.0006103515625,0.14053499071113873
0.0094999999999999,0.0459993332624435,0.0006103515625,0.13911019758792875
0.01,0.0459958501160144,0.0,0.13714569368622964
0.0104999999999999,0.0459923669695854,0.0006103515625,0.13526644160627627
0.011,0.0459887608885765,0.0006103515625,0.13339693866681931
0.0114999999999999,0.0459845960140228,0.00030517578125,0.1312826880861103
0.012,0.0459805838763713,0.0006103515625,0.12935856021435266
0.0124999999999999,0.0459762178361415,0.00030517578125,0.12732198306074707
0.013,0.0459723100066185,0.00091552734375,0.12565152756534484
0.0134999999999999,0.0459680743515491,0.00091552734375,0.12387744226629219
0.014,0.0459638647735118,0.0006103515625,0.12221017602848576
0.0144999999999999,0.0459600314497947,0.0006103515625,0.12084306979392932
0.015,0.045955367386341,-0.00030517578125,0.11908260673470807
0.0154999999999999,0.0459517985582351,0.00091552734375,0.11802842293225674
0.016,0.0459475591778755,0.00030517578125,0.11665873787937742
0.0164999999999999,0.0459435656666755,0.0006103515625,0.11550051351553066
0.017,0.0459395460784435,0.0006103515625,0.11439212732129624
0.0174999999999999,0.045935183763504,-0.0006103515625,0.11315940927734289
0.018,0.0459312461316585,0.0006103515625,0.11222756746334817
0.0184999999999999,0.0459270998835563,0.00091552734375,0.11123554010663078
0.019,0.0459230728447437,0.0006103515625,0.11036420345971117
0.0194999999999999,0.0459188669919967,0.00030517578125,0.10944679809272474
0.02,0.0459148250520229,0.0006103515625,0.10866943696811271
0.0204999999999999,0.0459109283983707,0.0006103515625,0.10801287201800103
0.021,0.0459066033363342,0.0006103515625,0.10716611575367647
0.0214999999999999,0.0459025502204895,0.00030517578125,0.10651086960953658
0.022,0.0458989329636096,0.0,0.10611991795844071
0.0224999999999999,0.0458945073187351,0.0006103515625,0.10532471285902492
0.023,0.0458905845880508,0.00030517578125,0.10483766886893925
0.0234999999999999,0.0458865463733673,0.0006103515625,0.10431518934888229
0.024,0.0458823777735233,0.0006103515625,0.1037522214585327
0.0244999999999999,0.045878529548645,0.0006103515625,0.10338465064844458
0.025,0.045874286442995,0.0006103515625,0.10282947132082743
0.0254999999999999,0.0458705127239227,0.001220703125,0.10254475937970792
0.026,0.0458664707839489,0.0006103515625,0.1021321589674837
0.0264999999999999,0.0458623804152011,0.0006103515625,0.10171365962297152
0.027,0.0458585768938064,0.0,0.10146118492777587
0.0274999999999999,0.0458543114364147,0.00091552734375,0.10098081012450924
0.028,0.0458500832319259,0.00030517578125,0.10054344859483504
0.0284999999999999,0.0458463095128536,0.00091552734375,0.1003573643416012
0.029,0.0458422303199768,0.0,0.10001844774844071
0.0294999999999999,0.0458380728960037,0.0,0.09965371311615157
0.03,0.0458337850868701,0.00030517578125,0.09923842598583714
0.0304999999999999,0.0458303466439247,0.00030517578125,0.09927056125505043
0.031,0.045826070010662,0.00030517578125,0.09886576852696387
0.0314999999999999,0.0458220280706882,0.0006103515625,0.09859740345461886
0.032,0.0458179377019405,0.0,0.09831269130864104
0.0324999999999999,0.0458140671253204,0.0006103515625,0.09814739542752733
0.033,0.0458100214600563,0.0006103515625,0.09789454397115302
0.0334999999999999,0.0458058007061481,0.0006103515625,0.09756067925795651
0.034,0.0458019562065601,0.00030517578125,0.09742780916557706
0.0344999999999999,0.0457980223000049,0.00030517578125,0.0972484764985246
0.035,0.0457936860620975,0.00091552734375,0.09686953908205378
0.0354999999999999,0.0457899682223796,0.00091552734375,0.0968149558684722
0.036,0.0457855910062789,0.0006103515625,0.09642389201321136
0.0364999999999999,0.0457816496491432,0.00091552734375,0.09626623308425564
0.037,0.0457776486873626,0.00030517578125,0.09607849932409462
0.0374999999999999,0.0457735061645507,0.001220703125,0.09582236407287273
0.038,0.0457694828510284,0.00030517578125,0.09563216441471567
0.0384999999999999,0.0457653701305389,0.00030517578125,0.09539916680013825
0.039,0.0457617416977882,0.00030517578125,0.09541094166923192
0.0394999999999999,0.0457575470209121,0.0006103515625,0.09513018657223461
0.04,0.045753501355648,0.00030517578125,0.09493171838049001
0.0404999999999999,0.0457495488226413,0.00091552734375,0.09478138049634915
0.041,0.0457457937300205,0.00030517578125,0.0947274944101091
0.0414999999999999,0.0457415804266929,0.0006103515625,0.09444005495721038
0.042,0.0457376055419445,0.00091552734375,0.09427916594754593
0.0424999999999999,0.0457335449755191,0.0,0.09407628474290584
0.043,0.0457292199134826,0.00030517578125,0.09374640263446447
0.0434999999999999,0.0457251742482185,0.00030517578125,0.09356507022944408
0.044,0.0457215644419193,0.00030517578125,0.09359875760365371
0.0444999999999999,0.0457175485789775,0.00091552734375,0.09341970757497076
0.045,0.0457133576273918,0.00030517578125,0.09315612595692531
0.0454999999999999,0.0457095876336097,0.00030517578125,0.09310582764015587
0.046,0.0457053557038307,0.00030517578125,0.09282155439760183
0.0464999999999999,0.0457015708088874,0.0,0.09276453595460206
0.047,0.0456973128020763,0.0006103515625,0.09246901635317867
0.0474999999999999,0.045693352818489,0.0006103515625,0.09232840641875573
0.048,0.045689221471548,0.0,0.09210279106082672
0.0484999999999999,0.0456851571798324,0.0,0.09191393653945926
0.049,0.0456815063953399,0.00091552734375,0.09192808038386437
0.0494999999999999,0.0456773042678833,0.00030517578125,0.0916623457225702
0.05,0.045673057436943,0.00091552734375,0.09138250403651102
0.0504999999999999,0.0456692278385162,0.00091552734375,0.091312720405866
0.051,0.0456655621528625,0.0,0.09131588502604686
0.0514999999999999,0.045661125332117,0.00030517578125,0.09093464799406177
0.052,0.0456569120287895,0.00030517578125,0.09067745242100676
0.0524999999999999,0.0456532351672649,0.00091552734375,0.09068593842162827
0.053,0.0456490777432918,0.00030517578125,0.09045033322391507
0.0534999999999999,0.0456448569893837,0.00030517578125,0.09018945772746874
0.054,0.0456410311162471,-0.00030517578125,0.09012597825606956
0.0544999999999999,0.0456371493637561,0.001220703125,0.09002863371404292
0.055,0.0456332862377166,0.0006103515625,0.08993584626015058
0.0554999999999999,0.0456291250884532,0.00091552734375,0.08969539384602308
0.056,0.045624990016222,0.0006103515625,0.0894732639237868
0.0564999999999999,0.0456212684512138,0.0006103515625,0.08945429648535212
0.057,0.0456167571246624,0.00030517578125,0.08904672276061934
0.0574999999999999,0.0456128790974617,0.00030517578125,0.08895948312849603
0.058,0.0456090085208416,0.0006103515625,0.08887075480945865
0.0584999999999999,0.0456049367785453,0.0006103515625,0.08868095981807336
0.059,0.0456010624766349,0.0,0.08858773604890377
0.0595,0.0455968901515007,0.0006103515625,0.08834775281323247
0.06,0.0455929525196552,0.00030517578125,0.0882254891723916
0.0605,0.0455889925360679,0.0006103515625,0.08809015301514181
0.061,0.0455849133431911,0.00091552734375,0.08789649040438405
0.0615,0.0455809459090232,0.0006103515625,0.08775862216558154
0.062,0.0455767959356308,0.00030517578125,0.08753263025635767
0.0625,0.0455725081264972,0.00030517578125,0.08724576287444737
0.0629999999999999,0.045568760484457,0.0006103515625,0.08722409932657713
0.0635,0.0455647408962249,0.001220703125,0.0870641582717856
0.0639999999999999,0.0455608628690242,0.0,0.08697150502554835
0.0645,0.0455568917095661,0.0006103515625,0.08683054057036989
0.0649999999999999,0.0455528162419796,0.00030517578125,0.08663920135143427
0.0655,0.0455485954880714,0.00091552734375,0.08638173040909772
0.0659999999999999,0.0455445721745491,0.00091552734375,0.08622446679291591
0.0665,0.0455406755208969,0.0006103515625,0.08612706362464789
0.0669999999999999,0.0455364808440208,0.0006103515625,0.08588523525780366
0.0675,0.0455324612557888,0.00091552734375,0.08573131203017746
0.0679999999999999,0.0455287732183933,0.0006103515625,0.08573323833503717
0.0685,0.0455245561897754,0.0006103515625,0.08547592670568013
0.0689999999999999,0.0455207601189613,0.00030517578125,0.08542336397349287
0.0695,0.045516338199377,0.0006103515625,0.08507044519068069
0.0699999999999999,0.045512355864048,0.00030517578125,0.08493711870113504
0.0705,0.0455084107816219,0.00030517578125,0.08481980739582556
0.0709999999999999,0.0455042161047458,0.00030517578125,0.08458322386387979
0.0715,0.0455001406371593,0.0006103515625,0.08440761340026003
0.0719999999999999,0.0454963520169258,0.00091552734375,0.08436734771694478
0.0725,0.0454925820231437,0.00030517578125,0.08432867061159093
0.0729999999999999,0.0454880967736244,0.0006103515625,0.08394873100477952
0.0735,0.0454842373728752,0.00091552734375,0.08387496216376492
0.0739999999999999,0.0454805046319961,0.0006103515625,0.08385481267672397
0.0745,0.0454760901629924,0.00030517578125,0.08350913510586579
0.0749999999999999,0.0454720556735992,0.00091552734375,0.08335301730167252
0.0755,0.0454677306115627,0.00030517578125,0.08306192487094688
0.0759999999999999,0.0454641468822956,0.0006103515625,0.08312362947641208
0.0765,0.045460045337677,0.0006103515625,0.08293169454936462
0.0769999999999999,0.0454557612538337,0.0006103515625,0.08265799992673724
0.0775,0.0454523377120494,0.0006103515625,0.08279037989657127
0.0779999999999999,0.0454477742314338,0.00030517578125,0.08237701500879
0.0785,0.0454438738524913,0.0006103515625,0.0822868213057806
0.0789999999999999,0.0454399585723876,0.0006103515625,0.08218565950002671
0.0795,0.0454357415437698,0.001220703125,0.08194217148907079
0.0799999999999999,0.0454318933188915,0.0006103515625,0.08187457883681094
0.0805,0.0454275719821453,0.0,0.08158390520336595
0.0809999999999999,0.0454237461090087,0.00030517578125,0.08153010137259484
0.0815,0.0454194284975528,0.00030517578125,0.08124428330026252
0.0819999999999999,0.0454155132174491,0.0006103515625,0.08115184609600504
0.0825,0.0454116612672805,0.00091552734375,0.081084808761717
0.0829999999999999,0.0454073138535022,0.00030517578125,0.08078551071121984
0.0835,0.0454036667943,0.00030517578125,0.08081607647060662
0.0839999999999999,0.0453994907438755,0.0006103515625,0.0805930323047083
0.0845,0.0453955084085464,0.001220703125,0.08046325997472135
0.0849999999999999,0.0453914739191532,0.0,0.08030840740777717
0.0855,0.0453872829675674,0.00091552734375,0.0800823743753063
0.0859999999999999,0.045383621007204,0.00030517578125,0.08010224678635791
0.0865,0.0453794635832309,0.00091552734375,0.07988612210601488
0.0869999999999999,0.0453752391040325,0.0006103515625,0.0796439876763027
0.0875,0.0453713722527027,0.0006103515625,0.0795701461937535
0.0879999999999999,0.045367281883955,0.0006103515625,0.0793900422592071
0.0885,0.045363325625658,0.0006103515625,0.07927253142136519
0.0889999999999999,0.0453595966100692,0.0006103515625,0.07925603974554622
0.0895,0.0453555025160312,0.0006103515625,0.07906624434248705
0.0899999999999999,0.0453512780368328,0.0,0.07882028397377604
0.0905,0.0453470274806022,0.0,0.07856860394494017
0.0909999999999999,0.045343343168497,0.0,0.07857916369851167
0.0915,0.0453391745686531,0.0,0.07836151113172868
0.0919999999999999,0.0453350953757762,0.0006103515625,0.07818873446221311
0.0925,0.0453309677541255,0.001220703125,0.07799542399137835
0.0929999999999999,0.045327391475439,0.0006103515625,0.0780530504338223
0.0935,0.0453231260180473,0.00030517578125,0.07778844153071263
0.0939999999999999,0.0453189648687839,0.00030517578125,0.07757834387844462
0.0945,0.045315247029066,0.00091552734375,0.07757096631606253
0.0949999999999999,0.0453111305832862,0.0,0.07737613600674986
0.0955,0.0453071966767311,0.0006103515625,0.07726605146657238
0.0959999999999999,0.0453033708035945,0.00030517578125,0.07720212264724284
0.0965,0.0452987812459468,0.00030517578125,0.07679202357385517
0.0969999999999999,0.045294851064682,0.00030517578125,0.07669318717956872
0.0975,0.0452910661697387,0.0,0.07665626843826728
0.0979999999999999,0.045286800712347,0.00091552734375,0.07639839815660039
0.0985,0.0452828034758567,0.001220703125,0.0762669549626049
0.0989999999999999,0.0452788285911083,0.0006103515625,0.07614463716194893
0.0995,0.0452747195959091,0.00091552734375,0.07596154422459196
0.0999999999999999,0.0452705696225166,0.0006103515625,0.07576276123612136
0.1005,0.0452667027711868,0.0006103515625,0.07569253503662637
0.1009999999999999,0.045262973755598,0.00091552734375,0.07567882049024932
0.1015,0.045258417725563,0.0,0.07529108950338909
0.1019999999999999,0.0452546440064907,0.0006103515625,0.07526466146459768
0.1025,0.0452506020665168,0.00030517578125,0.07511253914111181
0.1029999999999999,0.04524652287364,0.00030517578125,0.07494456667254584
0.1035,0.0452427119016647,0.0006103515625,0.07489661855026995
0.1039999999999999,0.0452383793890476,0.00030517578125,0.07461298087541333
0.1045,0.0452349074184894,0.00030517578125,0.07471709176427939
0.1049999999999999,0.0452304221689701,0.0,0.07436007938335759
0.1055,0.0452264435589313,0.0006103515625,0.0742388726434012
0.1059999999999999,0.0452225282788276,0.00091552734375,0.0741441994762387
0.1065,0.0452184900641441,0.0006103515625,0.07399274792689353
0.1069999999999999,0.0452145487070083,0.00030517578125,0.07388439586593822
0.1075,0.0452102720737457,0.0006103515625,0.07362736980166451
0.1079999999999999,0.0452062748372554,0.00091552734375,0.0734997277050214
0.1085,0.0452025420963764,0.0006103515625,0.0734868502413962
0.1089999999999999,0.0451983697712421,0.00091552734375,0.0732741730706726
0.1095,0.0451941452920436,-0.00030517578125,0.07304344334738168
0.1099999999999999,0.0451899282634258,0.0006103515625,0.0728215883714647
0.1105,0.0451860688626766,0.00030517578125,0.0727598782071554
0.1109999999999999,0.0451822653412818,0.00091552734375,0.0727176850131251
0.1115,0.0451782047748565,0.0006103515625,0.07255827346758016
0.1119999999999999,0.0451739206910133,0.00030517578125,0.07230311443320775
0.1125,0.0451699495315551,0.00030517578125,0.07219027859634262
0.1129999999999999,0.0451661832630634,0.00030517578125,0.07216459919488763
0.1135,0.0451621413230896,0.00030517578125,0.07201317628747661
0.1139999999999999,0.0451577790081501,0.001220703125,0.07172404831211386
0.1145,0.0451540723443031,0.001220703125,0.07172702839542028
0.1149999999999999,0.04514991492033,0.0,0.07152688875572318
0.1155,0.0451460778713226,0.00030517578125,0.0714688960119979
0.1159999999999999,0.045141689479351,0.0006103515625,0.07116856302582351
0.1165,0.0451377481222152,0.0006103515625,0.0710701983893744
0.1169999999999999,0.0451337061822414,0.0006103515625,0.0709262178043067
0.1175,0.0451297312974929,0.0006103515625,0.07081133199632679
0.118,0.0451258160173893,0.00030517578125,0.0707206767777052
0.1185,0.0451216958463192,0.0,0.07053937482657603
0.119,0.0451178513467311,0.00030517578125,0.07047884456268824
0.1195,0.0451135784387588,0.00030517578125,0.0702303672145753
0.12,0.04510984942317,0.00030517578125,0.07022115887304152
0.1205,0.0451057143509388,0.0,0.07003106247423342
0.121,0.045101698487997,0.0,0.06989510442387827
0.1215,0.0450974106788635,0.0,0.06964328687341814
0.122,0.0450934059917926,0.0006103515625,0.06951895037697474
0.1225,0.0450894273817539,0.0006103515625,0.06940494178805953
0.123,0.0450854189693927,-0.00030517578125,0.06927698728361345
0.1235,0.0450812019407749,0.0,0.06905994644389557
0.124,0.0450774207711219,0.00091552734375,0.06903259382687495
0.1245,0.045073315501213,0.00030517578125,0.06886188610791787
0.125,0.045069009065628,0.0006103515625,0.06860821387268502
0.1254999999999999,0.0450652502477169,0.0006103515625,0.06859302901712702
0.126,0.0450608916580677,0.0,0.06831748231854065
0.1264999999999999,0.0450570546090602,0.0,0.06826993405583019
0.127,0.0450532212853431,0.00030517578125,0.0682188841047005
0.1274999999999999,0.0450489185750484,0.0,0.06796564546204582
0.128,0.0450446680188179,0.0006103515625,0.06774146218495723
0.1284999999999999,0.0450409390032291,0.0006103515625,0.06774136538993639
0.129,0.0450369603931903,0.0006103515625,0.06762866327873761
0.1294999999999999,0.0450329966843128,0.0,0.06752125066303429
0.13,0.0450287833809852,0.00030517578125,0.06730771450179833
0.1304999999999999,0.0450249277055263,0.0006103515625,0.06724869192342932
0.131,0.0450206585228443,0.00091552734375,0.06701237547540849
0.1314999999999999,0.0450167134404182,0.0,0.06691735051736286
0.132,0.0450127832591533,0.00030517578125,0.06682638422610622
0.1324999999999999,0.0450085885822773,0.00091552734375,0.0666227691686697
0.133,0.0450046434998512,0.00091552734375,0.06652733300768096
0.1334999999999999,0.0450004488229751,0.0006103515625,0.06632568528709021
0.134,0.0449968054890632,0.0,0.06635742491353348
0.1344999999999999,0.0449923388659954,0.0,0.06603767666039599
0.135,0.0449886918067932,0.0006103515625,0.06606905873718139
0.1354999999999999,0.0449847504496574,0.0006103515625,0.06596927524527234
0.136,0.0449806042015552,0.0006103515625,0.06578278847874665
0.1364999999999999,0.0449769012629985,0.00030517578125,0.06578343336685698
0.137,0.0449723340570926,-0.00030517578125,0.06541894586794245
0.1374999999999999,0.0449687540531158,0.0006103515625,0.06547548630149232
0.138,0.0449648238718509,0.00030517578125,0.06537681123001267
0.1384999999999999,0.0449604615569114,0.0006103515625,0.06509789479626002
0.139,0.044957049190998,0.00030517578125,0.06521927331338685
0.1394999999999999,0.0449524596333503,0.0006103515625,0.06484175357310402
0.14,0.0449485443532466,0.0006103515625,0.06475593340625944
0.1404999999999999,0.0449446886777877,0.00091552734375,0.06469207164596714
0.141,0.0449407026171684,0.0006103515625,0.06457100969415222
0.1414999999999999,0.0449365861713886,0.0006103515625,0.06439627944531255
0.142,0.0449323542416095,0.0006103515625,0.06417690881696572
0.1424999999999999,0.0449287109076976,0.00030517578125,0.06420359566168003
0.143,0.0449244603514671,0.0,0.06397315844349279
0.1434999999999999,0.0449203699827194,0.0006103515625,0.06381384039343314
0.144,0.0449165627360343,0.0006103515625,0.06377189636814826
0.1444999999999999,0.0449125207960605,0.0006103515625,0.06362970083074226
0.145,0.0449083112180233,0.00030517578125,0.06342008451636262
0.1454999999999999,0.0449043996632099,0.00030517578125,0.06333626250302603
0.146,0.0449003688991069,0.0006103515625,0.06320157656662749
0.1464999999999999,0.0448964722454547,0.00091552734375,0.06312201119570546
0.147,0.0448921807110309,0.00030517578125,0.06287960289280135
0.1474999999999999,0.044888611882925,0.0,0.0629366490808027
0.148,0.04488430544734,0.0,0.0626846792877215
0.1484999999999999,0.0448802337050437,0.0,0.06253451517280904
0.149,0.0448765009641647,0.0006103515625,0.06252277927628534
0.1494999999999999,0.044872161000967,0.0006103515625,0.062259606943325725
0.15,0.0448683500289917,0.00030517578125,0.062217523412411935
0.1504999999999999,0.0448644235730171,0.00030517578125,0.0621242366909748
0.151,0.044860616326332,0.0,0.06207728795034462
0.1514999999999999,0.0448560789227485,0.00030517578125,0.061732427342794965
