time [s],Lmtc [m],STIM [ ],Fsee [N]
0.0,0.0460065975785255,0.0006103515625,0.14339158507679456
0.0004999999999999,0.0460067018866539,0.00030517578125,0.1434565628954433
0.001,0.0460065230727195,0.00030517578125,0.14334419392059228
0.0014999999999999,0.0460061989724636,0.00030517578125,0.14314516228119487
0.002,0.0460065007209777,0.0006103515625,0.14333966722987485
0.0024999999999999,0.0460062474012374,0.00091552734375,0.14318435160833326
0.003,0.0460066832602024,0.00030517578125,0.14346077101314988
0.0034999999999999,0.0460065975785255,0.00030517578125,0.1434061318028218
0.004,0.046006578952074,0.0,0.14339421828635612
0.0044999999999999,0.0460066758096218,0.0006103515625,0.14345449858933965
0.005,0.0460066124796867,0.0,0.1434138974498365
0.0054999999999999,0.0460067093372345,0.00030517578125,0.14347381015378224
0.006,0.0460063405334949,0.0,0.14324325800089077
0.0064999999999999,0.046006079763174,0.0006103515625,0.14308722875551508
0.007,0.0460055656731128,0.00030517578125,0.1427800762800357
0.0074999999999999,0.0460041314363479,0.00030517578125,0.14191797413892637
0.008,0.0460020899772644,0.00030517578125,0.14071542301434753
0.0084999999999999,0.0459979251027107,0.00030517578125,0.13827035397438886
0.009,0.0459925383329391,0.0006103515625,0.13519996845595705
0.0094999999999999,0.0459851771593093,0.0006103515625,0.13111455169673594
0.01,0.045976061373949,0.0006103515625,0.12623853817057754
0.0104999999999999,0.0459662489593029,0.0,0.12127410234491984
0.011,0.0459543094038963,0.0006103515625,0.11547204553031326
0.0114999999999999,0.0459418892860412,0.001220703125,0.10986364139197845
0.012,0.04592976719141,0.00030517578125,0.10488474174199089
0.0124999999999999,0.0459164232015609,0.0,0.09973786453695056
0.013,0.0459035262465477,0.00030517578125,0.09532908259760196
0.0134999999999999,0.0458897612988948,0.0006103515625,0.09097783376985831
0.014,0.045876920223236,0.0006103515625,0.0875682687036241
0.0144999999999999,0.0458635799586772,0.00091552734375,0.08434608716641977
0.015,0.0458503104746341,0.0,0.08157221943341754
0.0154999999999999,0.0458376854658126,-0.00030517578125,0.07944921079619001
0.016,0.0458241552114486,0.0006103515625,0.0772150170985412
0.0164999999999999,0.0458115004003047,-0.00030517578125,0.07565649896600941
0.017,0.0457986332476139,0.00091552734375,0.07420240716284175
0.0174999999999999,0.0457854829728603,0.00030517578125,0.07280829225728265
0.018,0.0457729026675224,0.00030517578125,0.07181313757429353
0.0184999999999999,0.0457602776587009,0.00030517578125,0.07089032456250857
0.019,0.0457475446164608,0.00091552734375,0.07000044957146681
0.0194999999999999,0.0457347147166729,0.0006103515625,0.06914081276472993
0.02,0.0457222275435924,0.0,0.06847949968346607
0.0204999999999999,0.0457094050943851,0.0006103515625,0.06771074072514673
0.021,0.0456964820623397,0.0006103515625,0.06694680580645405
0.0214999999999999,0.0456839278340339,0.00091552734375,0.06636846932066885
0.022,0.0456711426377296,0.00091552734375,0.06570684455147331
0.0224999999999999,0.0456583648920059,0.00030517578125,0.0650704314888576
0.023,0.0456457324326038,0.00030517578125,0.06450736248271433
0.0234999999999999,0.0456327125430107,-0.00030517578125,0.06379888226428236
0.024,0.0456204675137996,0.0006103515625,0.06341706913630106
0.0244999999999999,0.0456074029207229,0.0006103515625,0.06269470271474607
0.025,0.0455946624279022,0.0006103515625,0.06212950162871216
0.0254999999999999,0.045582216233015,0.0,0.06168034977818506
0.026,0.0455689281225204,0.00030517578125,0.06089903164747557
0.0264999999999999,0.0455563738942146,0.00030517578125,0.06043595665635969
0.027,0.0455437675118446,0.0006103515625,0.059939707488022194
0.0274999999999999,0.045530829578638,0.00030517578125,0.059314245122151256
0.028,0.0455182343721389,-0.00030517578125,0.05883254574934767
0.0284999999999999,0.0455054305493831,0.00030517578125,0.05826536419251167
0.029,0.0454928167164325,0.00091552734375,0.05777500610908055
0.0294999999999999,0.0454798899590969,0.00030517578125,0.05716469384235254
0.03,0.0454672127962112,0.0006103515625,0.05666073087890968
0.0304999999999999,0.0454545766115188,0.00091552734375,0.056168851468108814
0.031,0.0454415716230869,0.0006103515625,0.05553960795682086
0.0314999999999999,0.0454290695488452,0.0,0.05510994717405247
0.032,0.045416235923767,0.00030517578125,0.054546927673352834
0.0324999999999999,0.0454034805297851,0.0006103515625,0.054021432789838064
0.033,0.0453903675079345,0.00091552734375,0.05337229909714236
0.0334999999999999,0.0453777164220809,0.00030517578125,0.052908091092681755
0.034,0.0453655011951923,0.0,0.052588935672511834
0.0344999999999999,0.0453522577881813,0.00030517578125,0.051880291157227705
0.035,0.0453397072851657,0.00030517578125,0.05144796062712887
0.0354999999999999,0.0453269816935062,0.00030517578125,0.05094341564518833
0.036,0.0453142262995243,0.00030517578125,0.050429820709362624
0.0364999999999999,0.0453013107180595,0.0006103515625,0.04986512798001248
0.037,0.0452882722020149,-0.0006103515625,0.04927056962089123
0.0374999999999999,0.0452759079635143,0.0006103515625,0.04892086460321131
0.038,0.0452630892395973,0.0,0.048394184059648196
0.0384999999999999,0.0452504158020019,0.0006103515625,0.04792259847930555
0.039,0.0452379286289215,0.0006103515625,0.047511242111430055
0.0394999999999999,0.0452247634530067,0.00091552734375,0.046862623195159235
0.04,0.0452123656868934,0.0006103515625,0.04649597650541457
0.0404999999999999,0.0451995991170406,0.00030517578125,0.045990660236777565
0.041,0.0451863519847393,0.00030517578125,0.04533249405126651
0.0414999999999999,0.0451739430427551,-0.00030517578125,0.04497674426102124
0.042,0.045161023736,0.0,0.0444363828405638
0.0424999999999999,0.0451484881341457,0.00030517578125,0.04403115323420932
0.043,0.0451357141137123,0.0,0.043539298554593424
0.0434999999999999,0.0451229587197303,0.00030517578125,0.043057629726018024
0.044,0.0451102703809738,0.0006103515625,0.04260025902378831
0.0444999999999999,0.0450972877442836,0.00091552734375,0.04204911191662516
0.045,0.0450846478343009,0.00030517578125,0.04162027751750849
0.0454999999999999,0.0450717210769653,0.00030517578125,0.04109757996044654
0.046,0.045058723539114,0.0006103515625,0.040563155865379466
0.0464999999999999,0.0450460612773895,0.00030517578125,0.04014458356204561
0.047,0.0450331978499889,0.00030517578125,0.03965887395680294
0.0474999999999999,0.045020654797554,0.0006103515625,0.039277487889762285
0.048,0.045007336884737,0.0006103515625,0.03864980854888741
0.0484999999999999,0.0449947416782379,0.00091552734375,0.03826706130405857
0.049,0.0449824929237365,0.0006103515625,0.03798001328638269
0.0494999999999999,0.0449694655835628,0.00030517578125,0.037436869826677564
0.05,0.0449571534991264,0.00030517578125,0.03712315272184988
0.0504999999999999,0.0449442043900489,-0.00030517578125,0.03660293228200902
0.051,0.0449315086007118,0.0006103515625,0.03617043029222663
0.0514999999999999,0.0449189394712448,0.0006103515625,0.0357758058123454
0.052,0.0449059158563613,0.00091552734375,0.035243615801516935
0.0524999999999999,0.0448934808373451,0.00091552734375,0.034897417763751416
0.053,0.0448806248605251,0.0006103515625,0.03441869816094639
0.0534999999999999,0.0448679700493812,0.0006103515625,0.03400545576435355
0.054,0.0448556132614612,0.00091552734375,0.033676780178648044
0.0544999999999999,0.0448425859212875,0.0006103515625,0.033146104780235344
0.055,0.0448298566043376,0.0006103515625,0.032715788201215866
0.0554999999999999,0.0448168031871318,0.0006103515625,0.03219686488749241
0.056,0.0448043011128902,0.0006103515625,0.031846379109242415
0.0564999999999999,0.0447916984558105,0.0,0.03146041819123882
0.057,0.0447789132595062,0.00030517578125,0.031021607418919413
0.0574999999999999,0.044766329228878,0.00030517578125,0.030643050393311437
0.058,0.0447532124817371,0.00030517578125,0.030116713868676287
0.0584999999999999,0.0447408817708492,0.0006103515625,0.029819238838699424
0.059,0.0447280034422874,0.00030517578125,0.029361797602897737
0.0595,0.0447149537503719,0.0,0.028866576413075877
0.06,0.0447027832269668,0.0,0.02861760335688193
0.0605,0.044689804315567,0.00030517578125,0.02813813124943253
0.061,0.0446772202849388,0.0006103515625,0.027773815689569468
0.0615,0.0446640513837337,0.00091552734375,0.027254782177588883
0.062,0.0446518398821353,0.00030517578125,0.0269997909222122
0.0625,0.0446388758718967,0.00030517578125,0.02653691932227798
0.0629999999999999,0.0446259416639804,-0.00030517578125,0.0260922880770347
0.0635,0.0446133576333522,0.0,0.02574421472466591
0.0639999999999999,0.0446006096899509,0.00091552734375,0.025351892702242765
0.0645,0.0445875339210033,0.0,0.02488054399171751
0.0649999999999999,0.0445750653743743,0.00030517578125,0.024571444217919187
0.0655,0.0445622093975544,0.00030517578125,0.024160061077445928
0.0659999999999999,0.0445500575006008,-0.00030517578125,0.023925789866334222
0.0665,0.0445367656648159,0.0,0.023401228090393803
0.0669999999999999,0.0445242077112197,0.0006103515625,0.023072260393187403
0.0675,0.0445113517343997,0.00030517578125,0.022669173647056295
0.0679999999999999,0.0444984808564186,0.0006103515625,0.022268204418900702
0.0685,0.0444860346615314,0.0006103515625,0.021972091650960618
0.0689999999999999,0.0444732047617435,0.00030517578125,0.02158059213954518
0.0695,0.0444604642689228,0.0006103515625,0.02121469171923884
0.0699999999999999,0.0444478020071983,0.00030517578125,0.0208690218461962
0.0705,0.0444349944591522,0.0006103515625,0.020490793996415076
0.0709999999999999,0.0444222539663314,0.0006103515625,0.020131888414738765
0.0715,0.0444092638790607,0.0006103515625,0.019719580536723486
0.0719999999999999,0.0443967655301094,0.0006103515625,0.019424351600235683
0.0725,0.0443838983774185,0.00030517578125,0.01904424392427365
0.0729999999999999,0.0443711839616298,0.0006103515625,0.018702677983772495
0.0735,0.0443586334586143,-0.00030517578125,0.01839789813281251
0.0739999999999999,0.0443456918001174,0.00091552734375,0.0180073844919751
0.0745,0.0443329252302646,0.00030517578125,0.01766090029152902
0.0749999999999999,0.0443203970789909,0.00030517578125,0.017367069454469173
0.0755,0.0443077534437179,0.00030517578125,0.01704686137338194
0.0759999999999999,0.044294886291027,0.00091552734375,0.016681160748758257
0.0765,0.0442817881703376,0.00030517578125,0.016273951084672337
0.0769999999999999,0.0442692190408706,0.00030517578125,0.015983268506160407
0.0775,0.0442560166120529,0.00030517578125,0.015564694308277083
0.0779999999999999,0.0442432500422,0.00091552734375,0.01524357927109979
0.0785,0.0442307405173778,0.00091552734375,0.01497422675970275
0.0789999999999999,0.0442179851233959,0.0006103515625,0.014654195880804357
0.0795,0.0442050583660602,0.00030517578125,0.01430366356197057
0.0799999999999999,0.0441923514008522,0.00091552734375,0.014000176698128837
0.0805,0.044179692864418,-0.00030517578125,0.013706827844180062
0.0809999999999999,0.0441668257117271,0.00030517578125,0.013375190812686712
0.0815,0.0441541671752929,0.00030517578125,0.013085769353661812
0.0819999999999999,0.0441419817507267,0.0006103515625,0.012882658229518349
0.0825,0.0441285669803619,0.00030517578125,0.012452004398055704
0.0829999999999999,0.0441157966852188,0.0,0.012150082989251956
0.0835,0.0441032759845256,0.00091552734375,0.0118940536772825
0.0839999999999999,0.0440905652940273,0.00091552734375,0.011603590288870475
0.0845,0.0440776459872722,0.0,0.011279519826250724
0.0849999999999999,0.0440648607909679,0.0006103515625,0.010983339149458777
0.0855,0.0440524891018867,0.0006103515625,0.010758862712804126
0.0859999999999999,0.0440395399928092,0.0,0.01043608882567402
0.0865,0.0440266169607639,0.00030517578125,0.01012332715644566
0.0869999999999999,0.0440143942832946,0.00030517578125,0.009927767895530968
0.0875,0.0440012030303478,0.00091552734375,0.00957433988680442
0.0879999999999999,0.0439885780215263,0.00091552734375,0.00931839695074385
0.0885,0.0439760349690914,0.0006103515625,0.009075909201219277
0.0889999999999999,0.0439630933105945,0.0006103515625,0.008773093970815144
0.0895,0.0439502708613872,0.0006103515625,0.008493634875984169
0.0899999999999999,0.0439374074339866,0.00030517578125,0.008211954216535504
0.0905,0.0439252294600009,-0.00030517578125,0.008033354358910786
0.0909999999999999,0.0439122281968593,0.00030517578125,0.007733174605172975
0.0915,0.0438995920121669,0.00030517578125,0.007490493276248674
0.0919999999999999,0.0438866168260574,0.0006103515625,0.007202871603923814
0.0925,0.0438740216195583,0.00030517578125,0.0069723283962207245
0.0929999999999999,0.043861337006092,0.0006103515625,0.006731093466300983
0.0935,0.0438483878970146,0.0006103515625,0.006457795500745235
0.0939999999999999,0.0438357889652252,0.0006103515625,0.006234742299500946
0.0945,0.0438224487006664,0.00030517578125,0.0059202936973998845
0.0949999999999999,0.0438101738691329,0.00030517578125,0.005746185457587765
0.0955,0.043797492980957,0.0006103515625,0.005521221089286253
0.0959999999999999,0.0437844321131706,0.00030517578125,0.005254002649669459
0.0965,0.0437720939517021,0.0006103515625,0.005076731873759594
0.0969999999999999,0.0437590517103672,0.00091552734375,0.004818992537150333
0.0975,0.0437465012073516,0.00030517578125,0.004621967151243656
0.0979999999999999,0.0437337160110473,0.0,0.004401113388369993
0.0985,0.0437209717929363,0.0006103515625,0.0041884707811893004
0.0989999999999999,0.0437086187303066,0.00091552734375,0.004019707162692428
0.0995,0.0436953119933605,0.0006103515625,0.0037554269120998046
0.0999999999999999,0.0436828434467315,0.00030517578125,0.0035819024509743
0.1005,0.0436701290309429,0.0006103515625,0.003386410719822745
0.1009999999999999,0.0436573550105094,0.00091552734375,0.003189129141666295
0.1015,0.0436443611979484,0.0006103515625,0.002976552754854094
0.1019999999999999,0.0436318330466747,0.0006103515625,0.0028105082252569847
0.1025,0.0436189398169517,0.00030517578125,0.002616312210218402
0.1029999999999999,0.0436060167849063,0.00030517578125,0.0024253289029267317
0.1035,0.0435930751264095,0.00091552734375,0.0022387682271910237
0.1039999999999999,0.0435809306800365,0.00030517578125,0.002117983807087736
0.1045,0.0435675904154777,0.00030517578125,0.0019109788803177952
0.1049999999999999,0.0435554198920726,0.00030517578125,0.0017943050587640058
0.1055,0.0435424223542213,0.0006103515625,0.001623512343916182
0.1059999999999999,0.0435294434428215,0.00030517578125,0.0014611522156275497
0.1065,0.0435169748961925,0.00030517578125,0.0013364597198317358
0.1069999999999999,0.0435038432478904,-0.00030517578125,0.0011776401180706515
0.1075,0.0434911325573921,0.0006103515625,0.0010499809587826547
0.1079999999999999,0.0434783361852169,0.0006103515625,0.0009237321324390939
0.1085,0.0434655584394931,0.0006103515625,0.0008049392287018629
0.1089999999999999,0.0434527806937694,0.00091552734375,0.0006928527597529528
0.1095,0.0434397235512733,0.0,0.0005766450640580053
0.1099999999999999,0.0434271320700645,0.00030517578125,0.0004867011303550266
0.1105,0.0434146970510482,0.0006103515625,0.00040821624578921
0.1109999999999999,0.0434018149971962,0.0006103515625,0.0003219213880739098
0.1115,0.0433890745043754,0.00091552734375,0.00024848123522535297
0.1119999999999999,0.0433763563632965,0.001220703125,0.00018405025052601362
0.1125,0.0433637574315071,0.001220703125,0.0001306497469628212
0.1129999999999999,0.0433509387075901,0.0,8.229677472565896e-05
0.1135,0.0433383621275424,0.00091552734375,4.723373008466096e-05
0.1139999999999999,0.0433257557451725,0.0006103515625,2.1208031209166986e-05
0.1145,0.0433127284049987,0.0006103515625,3.7769912120917674e-06
0.1149999999999999,0.0433003455400466,0.00030517578125,0.0
0.1155,0.0432873405516147,0.0006103515625,0.0
0.1159999999999999,0.0432745404541492,0.00030517578125,0.0
0.1165,0.0432618372142314,0.0006103515625,0.0
0.1169999999999999,0.0432493202388286,0.00091552734375,0.0
0.1175,0.0432368144392967,0.00030517578125,0.0
0.118,0.0432235710322856,0.0006103515625,0.0
0.1185,0.0432111285626888,0.0006103515625,0.0
0.119,0.043198499828577,0.00091552734375,0.0
0.1195,0.0431855916976928,0.001220703125,0.0
0.12,0.0431728661060333,0.00030517578125,0.0
0.1205,0.0431602522730827,0.0006103515625,0.0
0.121,0.0431475006043911,0.0006103515625,0.0
0.1215,0.0431343764066696,0.0006103515625,0.0
0.122,0.0431218147277832,0.001220703125,0.0
0.1225,0.0431092418730258,0.00030517578125,0.0
0.123,0.0430961959064006,0.00030517578125,0.0
0.1235,0.0430837944149971,0.0006103515625,0.0
0.124,0.0430706515908241,0.00030517578125,0.0
0.1245,0.0430580601096153,-0.00030517578125,0.0
0.125,0.0430451855063438,0.0,0.0
0.1254999999999999,0.0430324152112007,0.0006103515625,0.0
0.126,0.0430196598172187,0.0,0.0
0.1264999999999999,0.0430069379508495,0.00030517578125,0.0
0.127,0.0429945662617683,0.0006103515625,0.0
0.1274999999999999,0.0429816208779811,0.0006103515625,0.0
0.128,0.0429687052965164,0.00030517578125,0.0
0.1284999999999999,0.0429566279053688,0.00091552734375,0.0
0.129,0.0429435931146144,0.00091552734375,0.0
0.1294999999999999,0.0429305732250213,0.00030517578125,0.0
0.13,0.0429180786013603,0.0,0.0
0.1304999999999999,0.0429052039980888,0.0006103515625,0.0
0.131,0.0428925901651382,0.0,0.0
0.1314999999999999,0.042879644781351,0.00030517578125,0.0
0.132,0.0428669638931751,0.00030517578125,0.0
0.1324999999999999,0.0428542643785476,-0.00030517578125,0.0
0.133,0.0428415089845657,0.00030517578125,0.0
0.1334999999999999,0.0428286753594875,0.0006103515625,0.0
0.134,0.0428159423172473,0.00030517578125,0.0
0.1344999999999999,0.042803056538105,0.0006103515625,0.0
0.135,0.0427903793752193,0.0006103515625,0.0
0.1354999999999999,0.0427776984870433,0.00030517578125,0.0
0.136,0.0427649840712547,0.00030517578125,0.0
0.1364999999999999,0.0427516624331474,-0.00030517578125,0.0
0.137,0.0427392236888408,0.0006103515625,0.0
0.1374999999999999,0.0427266545593738,0.0006103515625,0.0
0.138,0.042713850736618,0.0,0.0
0.1384999999999999,0.0427012145519256,0.0,0.0
0.139,0.042688101530075,0.00030517578125,0.0
0.1394999999999999,0.042675569653511,0.0,0.0
0.14,0.0426624193787574,0.00030517578125,0.0
0.1404999999999999,0.0426499396562576,0.0006103515625,0.0
0.141,0.0426371693611145,0.00030517578125,0.0
0.1414999999999999,0.0426243059337139,0.00030517578125,0.0
0.142,0.0426117591559886,0.00030517578125,0.0
0.1424999999999999,0.0425986982882022,0.0,0.0
0.143,0.0425863862037658,0.0006103515625,0.0
0.1434999999999999,0.0425734296441078,0.0006103515625,0.0
0.144,0.0425606481730937,0.00030517578125,0.0
0.1444999999999999,0.0425483733415603,0.0006103515625,0.0
0.145,0.0425352901220321,0.0,0.0
0.1454999999999999,0.042522806674242,0.0006103515625,0.0
0.146,0.0425097309052944,0.00030517578125,0.0
0.1464999999999999,0.0424970984458923,0.00030517578125,0.0
0.147,0.0424846708774566,0.00030517578125,0.0
0.1474999999999999,0.0424713790416717,0.00030517578125,0.0
0.148,0.0424590557813644,0.00091552734375,0.0
0.1484999999999999,0.0424463860690593,0.0,0.0
0.149,0.0424335040152072,0.0006103515625,0.0
0.1494999999999999,0.042420994490385,0.0,0.0
0.15,0.0424076654016971,0.00030517578125,0.0
0.1504999999999999,0.042395319789648,0.00091552734375,0.0
0.151,0.0423823855817317,0.00091552734375,0.0
0.1514999999999999,0.0423696264624595,0.0006103515625,0.0
0.152,0.0423569083213806,0.00030517578125,0.0
0.1524999999999999,0.0423438400030136,0.0006103515625,0.0
0.153,0.0423314720392227,0.00091552734375,0.0
0.1534999999999999,0.0423186793923378,0.0,0.0
0.154,0.0423060804605484,0.00030517578125,0.0
0.1544999999999999,0.0422928258776664,0.0006103515625,0.0
0.155,0.0422804206609725,0.0006103515625,0.0
0.1554999999999999,0.0422675311565399,0.00030517578125,0.0
0.156,0.0422545410692691,0.0006103515625,0.0
0.1564999999999999,0.0422420985996723,0.00030517578125,0.0
0.157,0.0422291941940784,0.0006103515625,0.0
0.1574999999999999,0.0422163493931293,0.0,0.0
0.158,0.0422039330005645,0.0006103515625,0.0
0.1584999999999999,0.0421908646821975,0.00030517578125,0.0
0.159,0.0421783067286014,0.00030517578125,0.0
0.1594999999999999,0.0421654991805553,0.00091552734375,0.0
0.16,0.0421526655554771,0.0006103515625,0.0
