time [s],Lmtc [m],STIM [ ],Fsee [N]
0.0,0.0475022532045841,0.00091552734375,0.30418466835324864
0.0004999999999999,0.0475024469196796,0.001220703125,0.30434732015780047
0.001,0.0475023947656154,0.0006103515625,0.30429517563333647
0.0014999999999999,0.0475027933716774,0.00030517578125,0.30462462910823007
0.002,0.0475021265447139,0.00030517578125,0.30404484860826814
0.0024999999999999,0.0475025102496147,0.00030517578125,0.3043756610812667
0.003,0.0475024841725826,0.0006103515625,0.3043439392212028
0.0034999999999999,0.0475021861493587,0.0,0.30408587669728615
0.004,0.0475024841725826,0.0006103515625,0.3043421396645032
0.0044999999999999,0.0475024208426475,0.0006103515625,0.3042809207357544
0.005,0.0475025698542594,0.00091552734375,0.30440120232217477
0.0054999999999999,0.0475023835897445,0.00030517578125,0.3042338004385026
0.006,0.0475025586783885,0.00091552734375,0.30437849232226966
0.0064999999999999,0.0475020930171012,0.0,0.30398060875265204
0.007,0.047502115368843,0.00030517578125,0.30402018884148063
0.0074999999999999,0.0475026369094848,0.0006103515625,0.3044678602265275
0.008,0.0475022085011005,0.0006103515625,0.3040954397932493
0.0084999999999999,0.0475024990737438,0.00091552734375,0.3043448788791985
0.009,0.0475022904574871,0.0006103515625,0.3041622535560302
0.0094999999999999,0.0475024208426475,0.00030517578125,0.3042731242179852
0.01,0.0475023947656154,0.00091552734375,0.3042469456036881
0.0104999999999999,0.0475022420287132,0.00091552734375,0.30411835745060295
0.011,0.0475016050040721,0.00091552734375,0.30360531557071274
0.0114999999999999,0.0475002564489841,0.0,0.3025697396015074
0.012,0.0474980175495147,0.0006103515625,0.30092636172255527
0.0124999999999999,0.0474942103028297,0.0006103515625,0.2982403576594269
0.013,0.0474886037409305,0.00030517578125,0.29453852064443004
0.0134999999999999,0.0474815964698791,0.00030517578125,0.29048511032990865
0.014,0.0474727377295494,0.00030517578125,0.2861574141649918
0.0144999999999999,0.0474632456898689,0.00030517578125,0.2829161648076678
0.015,0.0474520176649093,0.0006103515625,0.2800093852605059
0.0154999999999999,0.0474405251443386,0.00030517578125,0.2782298203764842
0.016,0.047428373247385,0.00091552734375,0.27664150140668836
0.0164999999999999,0.0474156662821769,0.0,0.275130628534243
0.017,0.0474033169448375,0.0006103515625,0.27403266045504876
0.0174999999999999,0.0473901592195034,0.00091552734375,0.2724940248574268
0.018,0.0473772399127483,0.001220703125,0.27129494868033505
0.0184999999999999,0.0473643578588962,0.00030517578125,0.27008720612698955
0.019,0.047351598739624,0.00091552734375,0.26893000208583273
0.0194999999999999,0.0473387464880943,0.0,0.2677018531741711
0.02,0.0473256558179855,0.00030517578125,0.26634936564195666
0.0204999999999999,0.047313392162323,0.0006103515625,0.26548049580942
0.021,0.0473001860082149,0.0006103515625,0.26394806332900567
0.0214999999999999,0.04728789255023,0.00030517578125,0.26308313358852353
0.022,0.0472754910588264,0.0006103515625,0.2619533108036133
0.0224999999999999,0.0472630970180034,0.0006103515625,0.26081085314110836
0.023,0.0472507067024707,0.00030517578125,0.259653041831732
0.0234999999999999,0.0472379252314567,0.00091552734375,0.25831367993381776
0.024,0.0472262017428875,0.00091552734375,0.25761393323007925
0.0244999999999999,0.0472134351730346,0.0006103515625,0.25612619541970477
0.025,0.0472010001540184,0.00091552734375,0.25502059370121555
0.0254999999999999,0.0471884794533252,0.0006103515625,0.2538507086649729
0.026,0.0471760407090187,0.001220703125,0.2527394587482378
0.0264999999999999,0.047163899987936,0.00030517578125,0.2517501916339832
0.027,0.0471512824296951,0.00091552734375,0.25044549492528784
0.0274999999999999,0.0471390448510646,0.00091552734375,0.24943900407700606
0.028,0.0471262298524379,0.0006103515625,0.2480714598433333
0.0284999999999999,0.0471140816807746,0.00091552734375,0.2471706137328637
0.029,0.0471015274524688,0.00091552734375,0.2459293251681725
0.0294999999999999,0.0470887422561645,0.00030517578125,0.24464475692303222
0.03,0.0470766387879848,0.0006103515625,0.2438023504637164
0.0304999999999999,0.0470640771090984,0.00030517578125,0.24255750761520303
0.031,0.0470516756176948,0.0006103515625,0.2414725788167409
0.0314999999999999,0.0470393039286136,0.0006103515625,0.24038347602233398
0.032,0.0470270700752735,0.0,0.23935214926750767
0.0324999999999999,0.0470147989690303,0.00030517578125,0.23825514399046865
0.033,0.0470016524195671,0.0,0.23673614375251337
0.0334999999999999,0.0469893887639045,0.00091552734375,0.2358888834226466
0.034,0.0469773337244987,0.001220703125,0.2349876155814878
0.0344999999999999,0.0469647794961929,0.00030517578125,0.23373170569900323
0.035,0.0469524785876274,0.0,0.2327013336948745
0.0354999999999999,0.0469398945569992,0.0006103515625,0.2314870557786776
0.036,0.0469280928373336,0.0006103515625,0.23074135713389052
0.0364999999999999,0.0469151325523853,0.00030517578125,0.22922110265169784
0.037,0.0469032451510429,0.0006103515625,0.22849974269643003
0.0374999999999999,0.0468904748558998,0.00030517578125,0.2271322702997
0.038,0.0468776486814022,0.0006103515625,0.22590249046269
0.0384999999999999,0.0468658506870269,0.001220703125,0.22526087761750888
0.039,0.0468531548976898,0.0006103515625,0.22393536468949848
0.0394999999999999,0.0468409210443496,0.0,0.22297958619302743
0.04,0.0468283481895923,0.0006103515625,0.22179058912719893
0.0404999999999999,0.0468162186443805,0.00030517578125,0.2209030905574295
0.041,0.0468034856021404,0.00030517578125,0.21960353841591182
0.0414999999999999,0.0467911437153816,0.00030517578125,0.21863150206782914
0.042,0.0467789992690086,0.0006103515625,0.21771392339159537
0.0424999999999999,0.0467663593590259,0.00030517578125,0.21647150276424093
0.043,0.046753853559494,0.0006103515625,0.21540277174462424
0.0434999999999999,0.0467413663864135,0.0006103515625,0.21434898435044733
0.044,0.0467287190258502,0.0006103515625,0.2132094207857875
0.0444999999999999,0.0467165634036064,0.00030517578125,0.21236727565619576
0.045,0.0467041283845901,0.00091552734375,0.21127000486560152
0.0454999999999999,0.0466916672885417,0.00091552734375,0.2101946360284732
0.046,0.0466791279613971,0.00030517578125,0.2090968056029636
0.0464999999999999,0.0466669648885726,0.0006103515625,0.20822462858555504
0.047,0.0466544143855571,0.00030517578125,0.20706565512164893
0.0474999999999999,0.0466419495642185,0.0006103515625,0.20601325182228375
0.048,0.0466299951076507,0.00091552734375,0.20524091867065702
0.0484999999999999,0.0466171912848949,0.0006103515625,0.20389827179203354
0.049,0.0466053709387779,0.00030517578125,0.20323689155886962
0.0494999999999999,0.0465925261378288,0.0006103515625,0.20186169688651984
0.05,0.0465805567800998,0.00030517578125,0.20112765747870812
0.0504999999999999,0.0465679615736007,0.0006103515625,0.19993316941230868
0.051,0.0465552546083927,0.00091552734375,0.19877198334142043
0.0514999999999999,0.0465431399643421,0.00030517578125,0.1979813564204394
0.052,0.046530894935131,0.00091552734375,0.19701544005158642
0.0524999999999999,0.0465190559625625,0.00030517578125,0.19625925129076072
0.053,0.046505756676197,0.00030517578125,0.19462813422057812
0.0534999999999999,0.0464936010539531,0.0006103515625,0.19388554531873983
0.054,0.0464813113212585,0.0006103515625,0.19294374159698108
0.0544999999999999,0.0464687533676624,0.00152587890625,0.1918449403265308
0.055,0.0464563965797424,0.00030517578125,0.19089565582575457
0.0554999999999999,0.0464439094066619,0.0006103515625,0.1898609382078331
0.056,0.0464316569268703,0.00030517578125,0.18896294954889878
0.0564999999999999,0.0464189797639846,0.0006103515625,0.18781332326628988
0.057,0.0464067757129669,0.00091552734375,0.1869726784017789
0.0574999999999999,0.0463944002985954,0.0006103515625,0.18598858199978788
0.058,0.0463817790150642,0.00091552734375,0.184884592393071
0.0584999999999999,0.0463698394596576,0.00030517578125,0.1841720693528737
0.059,0.0463572517037391,0.00030517578125,0.1830239863602281
0.0595,0.0463447384536266,0.001220703125,0.18199537917297368
0.06,0.0463325418531894,0.00030517578125,0.18115175379881657
0.0605,0.0463201180100441,0.00030517578125,0.18013727927086307
0.061,0.0463076308369636,0.00030517578125,0.17911700729992788
0.0615,0.0462951809167861,0.0006103515625,0.17814299547676937
0.062,0.0462830737233161,0.0006103515625,0.17734672894522713
0.0625,0.046270478516817,0.0,0.17623330480107918
0.0629999999999999,0.0462582744657993,0.00030517578125,0.17538945706880688
0.0635,0.046246014535427,0.00030517578125,0.17446984038326444
0.0639999999999999,0.0462329983711242,0.0006103515625,0.173165268806426
0.0645,0.0462212413549423,0.00030517578125,0.1726327460309499
0.0649999999999999,0.0462084040045738,-0.00030517578125,0.17139475173826665
0.0655,0.0461961738765239,0.0006103515625,0.1705850550585232
0.0659999999999999,0.0461835488677024,0.0006103515625,0.16952337936473388
0.0665,0.0461713336408138,0.00091552734375,0.16871449261544919
0.0669999999999999,0.0461590662598609,0.00091552734375,0.16782727973965364
0.0675,0.0461463928222656,0.0,0.1667242191862462
0.0679999999999999,0.0461343526840209,0.00091552734375,0.1659987639832896
0.0685,0.0461216382682323,0.00030517578125,0.16486319732596502
0.0689999999999999,0.0461093671619892,0.0006103515625,0.16403742539581573
0.0695,0.0460967980325222,0.00030517578125,0.16302138727526233
0.0699999999999999,0.0460845567286014,0.0006103515625,0.16220758974124663
0.0705,0.0460721626877784,0.00030517578125,0.16127523217561154
0.0709999999999999,0.0460595302283763,0.0,0.1602330179182556
0.0715,0.0460471734404563,0.00030517578125,0.15937991700836365
0.0719999999999999,0.0460347272455692,0.00091552734375,0.15845588955300555
0.0725,0.0460225604474544,0.00091552734375,0.1576778931016078
0.0729999999999999,0.0460100173950195,0.00030517578125,0.15666677772761942
0.0735,0.0459974519908428,0.00030517578125,0.15568821799034202
0.0739999999999999,0.0459853634238243,0.0006103515625,0.1549752825582873
0.0745,0.0459726154804229,0.00030517578125,0.1538640464821974
0.0749999999999999,0.0459603816270828,0.00091552734375,0.15308958929300032
0.0755,0.045947927981615,0.00030517578125,0.15216036429498353
0.0759999999999999,0.0459354519844055,0.00030517578125,0.15123481621029308
0.0765,0.0459232814610004,0.0,0.15047417726739332
0.0769999999999999,0.0459104925394058,0.0006103515625,0.14936538131727906
0.0775,0.0458981692790985,0.00030517578125,0.1485697182149216
0.0779999999999999,0.0458856076002121,-0.00030517578125,0.1476204742096118
0.0785,0.045873649418354,0.00030517578125,0.14699259016619642
0.0789999999999999,0.0458609014749527,0.00030517578125,0.14589025391470603
0.0795,0.0458487980067729,0.00030517578125,0.14518840088422225
0.0799999999999999,0.0458362661302089,0.0006103515625,0.14421968419934417
0.0805,0.0458234548568725,0.0006103515625,0.14315458456204286
0.0809999999999999,0.0458115004003047,0.00091552734375,0.14256884270518339
0.0815,0.0457989685237407,0.00030517578125,0.14160588933557386
0.0819999999999999,0.0457868315279483,0.00030517578125,0.14086386333149728
0.0825,0.0457740351557731,0.00030517578125,0.1397751698307557
0.0829999999999999,0.0457619577646255,0.0006103515625,0.13910740852555567
0.0835,0.0457495637238025,0.0006103515625,0.13823039470667156
0.0839999999999999,0.0457367748022079,0.0006103515625,0.13717903042728036
0.0845,0.0457248948514461,0.0006103515625,0.13662152280974488
0.0849999999999999,0.0457122735679149,0.001220703125,0.135619278186431
0.0855,0.0457002036273479,0.0006103515625,0.1349300789090884
0.0859999999999999,0.0456874631345272,0.00030517578125,0.13387650139600044
0.0865,0.0456749871373176,0.0006103515625,0.1330231173762754
0.0869999999999999,0.0456629358232021,0.00030517578125,0.13236983272654543
0.0875,0.0456500276923179,0.00030517578125,0.13126175493555453
0.0879999999999999,0.0456382036209106,0.00030517578125,0.1307487953797267
0.0885,0.0456256009638309,0.0006103515625,0.12977090914063633
0.0889999999999999,0.0456133037805557,0.0006103515625,0.12898761716479898
0.0895,0.0456008538603782,0.00091552734375,0.12812111814309934
0.0899999999999999,0.0455883219838142,0.0006103515625,0.1272291974991566
0.0905,0.0455762036144733,0.00091552734375,0.12655716833233913
0.0909999999999999,0.0455635152757167,0.00030517578125,0.12557507418722205
0.0915,0.0455510206520557,0.0006103515625,0.12473742172275729
0.0919999999999999,0.0455386377871036,0.00030517578125,0.12395893732881866
0.0925,0.0455262400209903,0.0006103515625,0.12316288591408495
0.0929999999999999,0.0455139689147472,0.0006103515625,0.12242474519858415
0.0935,0.0455013029277324,0.00091552734375,0.12148266017825952
0.0939999999999999,0.0454891398549079,0.0,0.12081812392649074
0.0945,0.0454764403402805,0.00091552734375,0.11986421741144185
0.0949999999999999,0.0454642288386821,0.00091552734375,0.11918105116311431
0.0955,0.0454519614577293,0.0006103515625,0.11843936533547494
0.0959999999999999,0.0454394817352294,0.00091552734375,0.11758543926282855
0.0965,0.0454273335635662,0.0006103515625,0.11690568979224894
0.0969999999999999,0.045414600521326,-0.00030517578125,0.11592950105115872
0.0975,0.0454023145139217,0.00091552734375,0.11521435519679275
0.0979999999999999,0.0453900657594203,0.00030517578125,0.11450063941828803
0.0985,0.0453771613538265,0.00030517578125,0.11347105840255028
0.0989999999999999,0.0453649498522281,0.0006103515625,0.11282589922654611
0.0995,0.0453526005148887,0.00091552734375,0.11208085371304424
0.0999999999999999,0.0453401021659374,0.00030517578125,0.11126264562926907
0.1005,0.0453276149928569,-0.00030517578125,0.11046376281228194
0.1009999999999999,0.0453152768313884,0.00030517578125,0.10973950062009086
0.1015,0.0453029796481132,0.00091552734375,0.10902278311165095
0.1019999999999999,0.0452904663980007,0.00091552734375,0.10819653587880787
0.1025,0.045278362929821,0.0006103515625,0.10757288745185675
0.1029999999999999,0.0452657081186771,0.00030517578125,0.10667028230750786
0.1035,0.0452533401548862,0.0006103515625,0.10593744174145735
0.1039999999999999,0.0452407523989677,0.0,0.10510258139170815
0.1045,0.0452284887433052,0.00030517578125,0.1044331827872257
0.1049999999999999,0.0452162213623523,0.00030517578125,0.1037445424214742
0.1055,0.045203324407339,0.0006103515625,0.10276631807439288
0.1059999999999999,0.0451911203563213,0.0006103515625,0.10215420258401316
0.1065,0.0451784059405326,0.0006103515625,0.10128452340037279
0.1069999999999999,0.0451664067804813,0.0006103515625,0.1007608280608285
0.1075,0.0451535731554031,0.00030517578125,0.09982022311774139
0.1079999999999999,0.0451414249837398,0.0006103515625,0.09922778375166158
0.1085,0.0451291836798191,0.0,0.09856035129737767
0.1089999999999999,0.0451164953410625,0.00030517578125,0.09768632361482396
0.1095,0.0451044365763664,0.0006103515625,0.0971206138702507
0.1099999999999999,0.0450921617448329,0.00091552734375,0.096423756373267
0.1105,0.0450798459351062,0.00091552734375,0.09570622934882769
0.1109999999999999,0.0450672768056392,0.0006103515625,0.09488413717533811
0.1115,0.0450549349188804,0.00091552734375,0.0941870360741222
0.1119999999999999,0.0450425669550895,0.0006103515625,0.09347692380093271
0.1125,0.0450300872325897,0.00030517578125,0.09272119077857588
0.1129999999999999,0.0450177527964115,0.00030517578125,0.09203945762836072
0.1135,0.0450052917003631,0.00030517578125,0.09130078567071385
0.1139999999999999,0.0449927076697349,0.0006103515625,0.09052002345676091
0.1145,0.044980552047491,0.00030517578125,0.08993686091799552
0.1149999999999999,0.0449682362377643,0.00030517578125,0.08925921821977807
0.1155,0.0449560843408107,0.00091552734375,0.08864758430933886
0.1159999999999999,0.0449431985616683,0.00030517578125,0.0877163069925605
0.1165,0.0449312292039394,0.0006103515625,0.08721992697245047
0.1169999999999999,0.0449186377227306,0.0006103515625,0.08642580790095165
0.1175,0.0449063666164875,0.0006103515625,0.0857882306465701
0.118,0.04489441588521,0.0006103515625,0.08527395357614724
0.1185,0.0448814108967781,0.0006103515625,0.08429616598945658
0.119,0.044869415462017,0.0,0.0837965164395778
0.1195,0.0448567643761634,0.00030517578125,0.08299374786493205
0.12,0.0448445752263069,0.0006103515625,0.08240834238855203
0.1205,0.0448318123817443,0.0,0.08157561107035054
0.121,0.0448197126388549,0.0006103515625,0.08104387397060552
0.1215,0.0448072627186775,0.00030517578125,0.08034500174652717
0.122,0.0447944030165672,0.00030517578125,0.07949295316727807
0.1225,0.0447824224829673,0.00030517578125,0.07903029985794206
0.123,0.0447698421776294,0.0006103515625,0.07828843736136447
0.1235,0.0447578504681587,0.0006103515625,0.07779699407379648
0.124,0.0447451584041118,0.00030517578125,0.07699990759321128
0.1245,0.0447327718138694,0.0006103515625,0.07635486367835918
0.125,0.0447205491364002,0.0006103515625,0.07577319814147114
0.1254999999999999,0.0447081588208675,0.00030517578125,0.07511423889027309
0.126,0.0446958020329475,0.00091552734375,0.07447525570984322
0.1264999999999999,0.0446829088032245,0.0006103515625,0.07363270667918806
0.127,0.0446707233786582,0.0006103515625,0.0731026513684107
0.1274999999999999,0.0446583926677703,0.0006103515625,0.07249569545568016
0.128,0.0446457751095294,0.0006103515625,0.07177447054983291
0.1284999999999999,0.0446338355541229,0.00030517578125,0.07132860230042748
0.129,0.0446211770176887,0.0006103515625,0.07057761814311603
0.1294999999999999,0.0446086712181568,0.00030517578125,0.06991154975592337
0.13,0.0445962883532047,0.00030517578125,0.06930115743458384
0.1304999999999999,0.0445838682353496,0.00030517578125,0.06867463170232592
0.131,0.0445720106363296,0.00030517578125,0.0682589486517447
0.1314999999999999,0.0445592626929283,0.00030517578125,0.0674764871381001
0.132,0.0445469766855239,-0.00030517578125,0.06689890284088652
0.1324999999999999,0.0445346161723136,0.00091552734375,0.06628876470156597
0.133,0.0445223227143287,0.00091552734375,0.06570524116824378
0.1334999999999999,0.0445098206400871,0.0006103515625,0.0650435887483354
0.134,0.0444973893463611,0.00030517578125,0.064420133739281
0.1344999999999999,0.0444850921630859,0.00030517578125,0.06385133933470552
0.135,0.0444722846150398,0.00030517578125,0.0630947673687528
0.1354999999999999,0.0444603636860847,0.00091552734375,0.06268675629986992
0.136,0.0444474630057811,0.00030517578125,0.06189654536037122
0.1364999999999999,0.0444354079663753,0.00030517578125,0.06144527980366747
0.137,0.0444223843514919,0.00091552734375,0.060628360011493784
0.1374999999999999,0.0444104187190532,0.00030517578125,0.060225745125449336
0.138,0.044398233294487,0.0,0.05971440401972856
0.1384999999999999,0.0443854182958602,0.0006103515625,0.058972179542268556
0.139,0.0443735718727111,0.0006103515625,0.058597565080704586
0.1394999999999999,0.0443604737520217,0.00030517578125,0.05775641367625505
0.14,0.0443482585251331,0.0,0.05726775890420857
0.1404999999999999,0.0443358160555362,0.0006103515625,0.056686757746111996
0.141,0.044323731213808,0.0006103515625,0.056230341475531354
0.1414999999999999,0.0443111434578895,0.00030517578125,0.05558589323493166
0.142,0.0442983955144882,0.0,0.05490318491661119
0.1424999999999999,0.0442863330245018,0.00091552734375,0.05447285333458248
0.143,0.0442737899720668,0.00030517578125,0.053861193180714195
0.1434999999999999,0.0442613139748573,0.0006103515625,0.05328245512193102
0.144,0.044249303638935,0.0,0.05286350060072481
0.1444999999999999,0.0442365072667598,0.00030517578125,0.05216443063387741
0.145,0.0442241877317428,0.0006103515625,0.05164829269746784
0.1454999999999999,0.0442119464278221,0.00030517578125,0.051153433945324976
0.146,0.0441995784640312,0.00030517578125,0.05061032980185857
0.1464999999999999,0.0441872701048851,0.00030517578125,0.05008855325775932
0.147,0.044174674898386,0.0006103515625,0.04947290486402483
0.1474999999999999,0.0441626347601413,0.00030517578125,0.04904981215003605
0.148,0.0441499054431915,0.0006103515625,0.04839041364874267
0.1484999999999999,0.0441379025578498,0.00030517578125,0.047983830738578016
0.149,0.0441253893077373,0.001220703125,0.04739823398641644
0.1494999999999999,0.0441130511462688,0.0,0.04687935367175874
