time [s],Lmtc [m],STIM [ ],Fsee [N]
0.0,0.0455022677779197,0.0006103515625,0.176436934332673
0.0004999999999999,0.0455021560192108,0.0006103515625,0.17636382034591241
0.001,0.0455023646354675,0.00030517578125,0.17650026339450944
0.0014999999999999,0.0455023236572742,0.0006103515625,0.17647227814296515
0.002,0.0455022379755973,0.0006103515625,0.1764156365059581
0.0024999999999999,0.0455021075904369,0.00030517578125,0.1763311198242223
0.003,0.0455023199319839,0.0,0.17647081369038622
0.0034999999999999,0.0455020815134048,0.0,0.1763152490108075
0.004,0.045501958578825,0.0006103515625,0.17623881055232002
0.0044999999999999,0.0455023162066936,0.0,0.17647506907676433
0.005,0.0455019138753414,0.0006103515625,0.17621342971906184
0.0054999999999999,0.0455022007226944,0.0006103515625,0.17640450994146417
0.006,0.0455021485686302,0.0006103515625,0.17637094624006863
0.0064999999999999,0.0455023162066936,0.0,0.17648062060175537
0.007,0.0455018542706966,0.0006103515625,0.17618038600918925
0.0074999999999999,0.0455019772052764,0.00030517578125,0.176266867973598
0.008,0.0455014333128929,0.0,0.1759203626675627
0.0084999999999999,0.0455001443624496,0.0,0.17510632846876084
0.009,0.045497428625822,0.0006103515625,0.17340453183933835
0.0094999999999999,0.0454931557178497,0.0,0.17077763387754707
0.01,0.0454863905906677,0.00030517578125,0.1666933985061306
0.0104999999999999,0.0454774610698223,0.00030517578125,0.1614754586250537
0.011,0.0454667434096336,0.00091552734375,0.1554752889689513
0.0114999999999999,0.0454531200230121,0.00091552734375,0.14817404828885727
0.012,0.0454378724098205,0.00030517578125,0.1405541990618461
0.0124999999999999,0.0454207062721252,0.0006103515625,0.1326627573633819
0.013,0.0454026535153389,0.00091552734375,0.12532414657737284
0.0134999999999999,0.0453827194869518,0.0006103515625,0.11827214889277156
0.014,0.0453622564673423,0.0006103515625,0.1125218024668917
0.0144999999999999,0.0453410297632217,0.00030517578125,0.10803255010809146
0.015,0.0453196056187152,0.0006103515625,0.10487460766323224
0.0154999999999999,0.045297835022211,0.00030517578125,0.10253352095926631
0.016,0.0452764853835105,0.00030517578125,0.1008922559907848
0.0164999999999999,0.0452552884817123,0.00091552734375,0.09948591591257763
0.017,0.0452338531613349,0.00030517578125,0.09804619029570527
0.0174999999999999,0.0452128909528255,0.0006103515625,0.09684110958488074
0.018,0.0451918579638004,0.00091552734375,0.09556546784683194
0.0184999999999999,0.0451710224151611,0.00030517578125,0.09435734363762907
0.019,0.0451498962938785,0.0006103515625,0.09301476323653898
0.0194999999999999,0.045129619538784,0.00030517578125,0.0920124813460459
0.02,0.0451085269451141,0.00030517578125,0.09060148540702864
0.0204999999999999,0.0450880005955696,0.0006103515625,0.089475473252377
0.021,0.0450674854218959,0.00030517578125,0.08830580621728544
0.0214999999999999,0.0450465939939022,0.0006103515625,0.08698765975338213
0.022,0.0450259558856487,0.00030517578125,0.08580642569287229
0.0224999999999999,0.0450048968195915,0.0,0.08447385230529261
0.023,0.0449844226241111,0.0006103515625,0.08339720067001069
0.0234999999999999,0.0449632927775383,0.0,0.08205187881686363
0.024,0.0449429675936698,0.0006103515625,0.08104350222217899
0.0244999999999999,0.0449218675494194,0.00030517578125,0.07970639343357103
0.025,0.0449009574949741,0.0,0.07850675997113138
0.0254999999999999,0.0448802895843982,0.00030517578125,0.07740025061941659
0.026,0.0448596477508544,0.0006103515625,0.07627793937505323
0.0264999999999999,0.044838510453701,0.0,0.07498300217186143
0.027,0.0448178946971893,0.00091552734375,0.0739257157634965
0.0274999999999999,0.044797133654356,0.00091552734375,0.0727868407589687
0.028,0.0447759740054607,0.0006103515625,0.07152455570083635
0.0284999999999999,0.0447557419538497,0.0,0.07062103336554566
0.029,0.0447344705462455,0.001220703125,0.06929840494164057
0.0294999999999999,0.0447137914597988,0.00091552734375,0.0682523129832766
0.03,0.0446928516030311,0.00030517578125,0.06710267694570425
0.0304999999999999,0.0446721389889717,0.0006103515625,0.06604790007740644
0.031,0.0446510426700115,0.00030517578125,0.0648609377462827
0.0314999999999999,0.0446302480995655,0.0,0.06381291389683075
0.032,0.0446095131337642,0.0006103515625,0.06277180705355634
0.0324999999999999,0.0445887930691242,0.00030517578125,0.06172637077313173
0.033,0.0445677228271961,0.0006103515625,0.06057124576913114
0.0334999999999999,0.044546864926815,0.00030517578125,0.05952424988085912
0.034,0.0445262566208839,0.0006103515625,0.05855341715214801
0.0344999999999999,0.0445049293339252,0.0006103515625,0.05734094231446785
0.035,0.0444845594465732,0.0,0.05648446010735167
0.0354999999999999,0.0444634072482585,0.0,0.055336546289280066
0.036,0.044442594051361,0.0006103515625,0.05433887851226326
0.0364999999999999,0.0444217212498188,0.0,0.05332117171976583
0.037,0.0444007590413093,0.00091552734375,0.05228425592266633
0.0374999999999999,0.0443799421191215,0.00030517578125,0.05130598068382873
0.038,0.0443591177463531,0.0006103515625,0.05032401955554317
0.0384999999999999,0.0443383604288101,0.0006103515625,0.04936429336555656
0.039,0.0443174690008163,0.0,0.04836467411230529
0.0394999999999999,0.0442966409027576,0.0,0.04739783208692628
0.04,0.0442755930125713,0.00091552734375,0.04637400334326145
0.0404999999999999,0.0442554131150245,0.00030517578125,0.04561764960188453
0.041,0.0442340224981308,0.0006103515625,0.04447052954471904
0.0414999999999999,0.0442134998738765,0.001220703125,0.04363171223255681
0.042,0.0441926605999469,0.00030517578125,0.04268266507602876
0.0424999999999999,0.0441719815135002,0.0006103515625,0.04178886369234965
0.043,0.0441512577235698,0.0006103515625,0.04088204770477919
0.0434999999999999,0.0441301837563514,0.0006103515625,0.03988625556733813
0.044,0.0441095791757106,0.0006103515625,0.0390476506006143
0.0444999999999999,0.0440887175500392,0.0006103515625,0.0381287908958053
0.045,0.0440678559243679,0.00030517578125,0.037224916547964185
0.0454999999999999,0.0440470166504383,0.0006103515625,0.03633865768468504
0.046,0.0440264865756034,0.0,0.03554003114006328
0.0464999999999999,0.0440053716301918,0.00030517578125,0.03457965632509965
0.047,0.0439847856760025,0.0006103515625,0.033787087575438086
0.0474999999999999,0.0439634323120117,0.00091552734375,0.03279378943652347
0.048,0.043942991644144,0.00030517578125,0.03206879730244352
0.0484999999999999,0.0439222231507301,0.00091552734375,0.031237836146209782
0.049,0.0439012721180915,0.0006103515625,0.030370305937821876
0.0494999999999999,0.0438805259764194,0.0,0.029569501348236025
0.05,0.043859589844942,0.0006103515625,0.028726107846883054
0.0504999999999999,0.0438389927148819,0.00091552734375,0.027976326598922564
0.051,0.0438180081546306,0.0006103515625,0.027131028011379767
0.0514999999999999,0.0437975488603115,0.00030517578125,0.026423973729691484
0.052,0.0437763519585132,0.0006103515625,0.025540362861447164
0.0524999999999999,0.0437557622790336,0.00030517578125,0.02482366643025959
0.053,0.0437344126403331,0.0006103515625,0.02393621243189042
0.0534999999999999,0.0437139645218849,0.0006103515625,0.023278103882168475
0.054,0.0436929240822792,0.00030517578125,0.022479040310752384
0.0544999999999999,0.0436719581484794,0.0,0.021715092569698988
0.055,0.0436511561274528,0.0006103515625,0.020997042871312165
0.0554999999999999,0.0436301305890083,0.0006103515625,0.02023787915572235
0.056,0.0436096787452697,0.00030517578125,0.01960678404898761
0.0564999999999999,0.0435886234045028,0.0006103515625,0.018846358804896286
0.057,0.0435680635273456,0.00030517578125,0.018200386110497905
0.0574999999999999,0.0435469187796115,0.0,0.01744053576232356
0.058,0.0435263887047767,0.00091552734375,0.016817062604130132
0.0584999999999999,0.0435052439570426,-0.00030517578125,0.016077441773937603
0.059,0.043484840542078,0.0006103515625,0.015491236998001034
0.0595,0.0434639416635036,0.00030517578125,0.014810143508633111
0.06,0.0434429235756397,0.0,0.014122417846131776
0.0605,0.0434224121272563,0.00091552734375,0.013536104882405028
0.061,0.0434015281498432,0.0006103515625,0.012887079924903176
0.0615,0.0433807075023651,0.00091552734375,0.012261123502350842
0.062,0.0433595702052116,0.00091552734375,0.011595749276463544
0.0625,0.0433391854166984,0.00030517578125,0.011064756665650556
0.0629999999999999,0.043318036943674,0.00030517578125,0.010416302390758745
0.0635,0.0432973429560661,0.0006103515625,0.009854140385354612
0.0639999999999999,0.043276373296976,0.00030517578125,0.009259362746518798
0.0645,0.0432555861771106,0.00030517578125,0.00870396823873101
0.0649999999999999,0.0432348363101482,0.0006103515625,0.008162712267018469
0.0655,0.0432141311466693,0.00030517578125,0.007636246107085462
0.0659999999999999,0.0431931801140308,0.00030517578125,0.007088238932092172
0.0665,0.043172150850296,0.00030517578125,0.0065460335440387695
0.0669999999999999,0.0431515909731388,0.001220703125,0.006074409918323755
0.0675,0.0431306101381778,0.0006103515625,0.005562721747481336
0.0679999999999999,0.0431100353598594,0.00030517578125,0.005110663731856996
0.0685,0.0430892370641231,0.0006103515625,0.00464473900859024
0.0689999999999999,0.0430683493614196,0.0006103515625,0.004184744617714455
0.0695,0.0430471710860729,0.00030517578125,0.003714875514003102
0.0699999999999999,0.0430268533527851,0.00030517578125,0.003341689086518465
0.0705,0.0430058054625988,0.0,0.002917170681217882
0.0709999999999999,0.0429850220680236,0.00030517578125,0.0025349230981794226
0.0715,0.0429640114307403,0.00030517578125,0.0021553422445827653
0.0719999999999999,0.0429432801902294,0.00030517578125,0.001817431966825423
0.0725,0.0429223105311393,0.0,0.0014862411699620628
0.0729999999999999,0.0429013520479202,0.0006103515625,0.001181836134437211
0.0735,0.042880855500698,0.0006103515625,0.0009268815499991534
0.0739999999999999,0.0428596474230289,0.0,0.0006672412966149995
0.0745,0.0428387969732284,0.0006103515625,0.00045646678363879756
0.0749999999999999,0.0428178720176219,0.0006103515625,0.0002786653898384148
0.0755,0.0427970811724662,0.0006103515625,0.0001431655282845928
0.0759999999999999,0.042776022106409,0.0006103515625,4.6967082054291475e-05
0.0765,0.0427554622292518,0.00030517578125,3.7642340043976705e-06
0.0769999999999999,0.0427344515919685,0.00091552734375,0.0
0.0775,0.0427136272192001,0.0,0.0
0.0779999999999999,0.0426926724612712,0.00091552734375,0.0
0.0785,0.0426719561219215,0.00091552734375,0.0
0.0789999999999999,0.0426513627171516,0.001220703125,0.0
0.0795,0.0426302775740623,0.00030517578125,0.0
0.0799999999999999,0.0426097959280014,0.0,0.0
0.0805,0.0425885803997516,0.00091552734375,0.0
0.0809999999999999,0.0425681918859481,0.0006103515625,0.0
0.0815,0.0425473377108573,0.0006103515625,0.0
0.0819999999999999,0.0425263568758964,0.0,0.0
0.0825,0.0425055436789989,0.00030517578125,0.0
0.0829999999999999,0.042484775185585,0.0006103515625,0.0
0.0835,0.04246411845088,0.0006103515625,0.0
0.0839999999999999,0.0424430295825004,0.0,0.0
0.0845,0.0424222685396671,0.0,0.0
0.0849999999999999,0.0424010381102561,0.00091552734375,0.0
0.0855,0.0423805601894855,0.00091552734375,0.0
0.0859999999999999,0.0423591844737529,0.00030517578125,0.0
0.0865,0.0423388332128524,0.00030517578125,0.0
0.0869999999999999,0.0423176661133766,0.0006103515625,0.0
0.0875,0.042297039180994,0.00030517578125,0.0
0.0879999999999999,0.0422762781381607,0.00030517578125,0.0
0.0885,0.0422555543482303,0.0006103515625,0.0
0.0889999999999999,0.042234793305397,0.0,0.0
0.0895,0.0422134213149547,0.00091552734375,0.0
0.0899999999999999,0.0421928949654102,0.00091552734375,0.0
0.0905,0.0421720296144485,0.00030517578125,0.0
0.0909999999999999,0.0421510748565197,0.0006103515625,0.0
0.0915,0.0421303659677505,0.0006103515625,0.0
0.0919999999999999,0.042109590023756,0.0006103515625,0.0
0.0925,0.0420883856713771,0.0,0.0
0.0929999999999999,0.0420676097273826,0.00091552734375,0.0
0.0935,0.0420466028153896,0.00091552734375,0.0
0.0939999999999999,0.0420256443321704,0.0,0.0
0.0945,0.042005356401205,0.00030517578125,0.0
0.0949999999999999,0.0419843718409538,0.0006103515625,0.0
0.0955,0.04196373000741,0.0006103515625,0.0
0.0959999999999999,0.0419426783919334,0.0,0.0
0.0965,0.0419220104813575,0.00030517578125,0.0
0.0969999999999999,0.0419009737670421,0.00030517578125,0.0
0.0975,0.0418802201747894,0.00030517578125,0.0
0.0979999999999999,0.0418597050011158,0.0006103515625,0.0
0.0985,0.0418389625847339,0.00091552734375,0.0
0.0989999999999999,0.0418182499706745,0.0,0.0
0.0995,0.0417974330484867,0.0006103515625,0.0
0.0999999999999999,0.0417766086757183,0.0006103515625,0.0
0.1005,0.0417554229497909,0.0006103515625,0.0
0.1009999999999999,0.0417350530624389,0.00030517578125,0.0
0.1015,0.0417139865458011,0.00030517578125,0.0
0.1019999999999999,0.0416934341192245,0.00091552734375,0.0
0.1025,0.0416725389659404,0.00091552734375,0.0
0.1029999999999999,0.0416518561542034,0.001220703125,0.0
0.1035,0.0416317097842693,0.00030517578125,0.0
0.1039999999999999,0.0416121408343315,0.00030517578125,0.0
0.1045,0.0415933728218078,0.00030517578125,0.0
0.1049999999999999,0.0415750704705715,0.00091552734375,0.0
0.1055,0.0415586270391941,0.00030517578125,0.0
0.1059999999999999,0.0415440090000629,0.0,0.0
0.1065,0.0415317378938198,0.00030517578125,0.0
0.1069999999999999,0.0415210276842117,0.0006103515625,0.0
0.1075,0.0415132753551006,0.00030517578125,0.0
0.1079999999999999,0.0415084399282932,0.0,0.0
0.1085,0.0415066331624984,0.0006103515625,0.0
0.1089999999999999,0.0415074117481708,0.0006103515625,0.0
0.1095,0.0415113531053066,0.0006103515625,0.0
0.1099999999999999,0.0415186025202274,0.0006103515625,0.0
0.1105,0.0415278114378452,0.0,0.0
0.1109999999999999,0.0415401048958301,0.0006103515625,0.0
0.1115,0.0415538996458053,0.0,0.0
0.1119999999999999,0.0415700227022171,0.00030517578125,0.0
0.1125,0.0415871888399124,0.00091552734375,0.0
0.1129999999999999,0.0416060425341129,0.0006103515625,0.0
0.1135,0.041625503450632,0.0,0.0
0.1139999999999999,0.0416459590196609,0.0006103515625,0.0
0.1145,0.0416664630174636,0.00030517578125,0.0
0.1149999999999999,0.0416873767971992,0.00030517578125,0.0
0.1155,0.0417079478502273,0.00030517578125,0.0
0.1159999999999999,0.0417289659380912,0.00030517578125,0.0
0.1165,0.0417501479387283,0.0006103515625,0.0
0.1169999999999999,0.0417704172432422,0.0006103515625,0.0
0.1175,0.0417915396392345,0.0006103515625,0.0
0.118,0.0418117232620716,0.0006103515625,0.0
0.1185,0.0418325141072273,0.00091552734375,0.0
0.119,0.041852980852127,0.00030517578125,0.0
0.1195,0.0418741069734096,0.00030517578125,0.0
0.12,0.0418948754668235,0.0006103515625,0.0
0.1205,0.0419157557189464,0.00030517578125,0.0
0.121,0.0419363416731357,0.0006103515625,0.00016532733470323453
0.1215,0.0419571176171302,0.0006103515625,0.0012016264306027903
0.122,0.0419777706265449,0.0,0.0031438279773870915
0.1225,0.0419981181621551,0.0006103515625,0.005899319416164075
0.123,0.0420194417238235,0.0006103515625,0.009562354686589095
0.1235,0.0420399270951747,0.0006103515625,0.013821849907634593
0.124,0.0420611761510372,0.0,0.018876626364674267
0.1245,0.0420817397534847,0.00091552734375,0.024386948135010567
0.125,0.042103074491024,0.00030517578125,0.030642075301560396
0.1254999999999999,0.0421242043375968,0.00030517578125,0.037374866472476787
0.126,0.0421448796987533,0.0006103515625,0.044457605595141426
0.1264999999999999,0.0421659648418426,-0.00030517578125,0.05213592441238383
0.127,0.0421864129602909,0.0,0.06002524281075731
0.1274999999999999,0.0422072783112525,0.0006103515625,0.06849137311815255
0.128,0.0422284193336963,0.00030517578125,0.07748786609922546
0.1284999999999999,0.0422491431236267,0.00030517578125,0.08673043294492432
0.129,0.0422700643539428,0.00091552734375,0.09648483067835605
0.1294999999999999,0.0422909930348396,0.00030517578125,0.10658094122119437
0.13,0.0423113591969013,0.0,0.11657161957847036
0.1304999999999999,0.0423320531845092,0.0006103515625,0.12670265950329593
0.131,0.0423533916473388,0.0006103515625,0.13695147124947138
0.1314999999999999,0.0423739664256572,0.00030517578125,0.14636498099400994
0.132,0.0423949472606182,0.00030517578125,0.15552694979250478
0.1324999999999999,0.0424155443906784,0.00030517578125,0.16390709278222199
0.133,0.0424367226660251,0.00030517578125,0.17207508199035634
0.1334999999999999,0.0424571298062801,0.0006103515625,0.1791645544681895
0.134,0.0424780696630477,0.00091552734375,0.18603446772015336
0.1344999999999999,0.0424988754093647,0.00030517578125,0.19225160075775538
0.135,0.0425197631120681,0.00091552734375,0.197986640245587
0.1354999999999999,0.0425404384732246,0.00030517578125,0.20307152254365385
0.136,0.0425613969564437,0.00030517578125,0.20787813106899586
0.1364999999999999,0.0425819978117942,0.0,0.21199408639711043
0.137,0.0426030941307544,0.00030517578125,0.21605512786920275
0.1374999999999999,0.0426240190863609,0.00091552734375,0.21960114378116524
0.138,0.0426444374024868,0.00091552734375,0.2224499929579306
0.1384999999999999,0.0426656566560268,0.0,0.22557266430708875
0.139,0.0426861569285392,0.00030517578125,0.2278825263347175
0.1394999999999999,0.0427073314785957,0.0006103515625,0.23043486023150003
0.14,0.0427276566624641,0.00091552734375,0.23213258719838198
0.1404999999999999,0.0427487716078758,0.00030517578125,0.23422454676900165
0.141,0.0427694916725158,0.00091552734375,0.23582744134634984
0.1414999999999999,0.0427903495728969,0.00091552734375,0.23737294140764328
0.142,0.0428109876811504,0.001220703125,0.23861311419051132
0.1424999999999999,0.0428321212530136,0.0006103515625,0.2400905635869543
0.143,0.0428530313074588,0.0006103515625,0.2412685802377627
0.1434999999999999,0.0428738035261631,0.00030517578125,0.2422388490865308
0.144,0.0428944937884807,0.00030517578125,0.24306549089304397
0.1444999999999999,0.0429154299199581,0.00030517578125,0.24400170921765219
0.145,0.0429364144802093,0.0,0.24489342017187432
0.1454999999999999,0.0429570451378822,0.00030517578125,0.24545855929630148
0.146,0.0429782718420028,0.0006103515625,0.24641541706211026
0.1464999999999999,0.042998768389225,0.0,0.24676750233733266
0.147,0.0430198274552822,0.0006103515625,0.2475129264571753
0.1474999999999999,0.0430404990911483,0.00030517578125,0.24792452156272038
0.148,0.0430612936615943,0.00091552734375,0.24840720446638642
0.1484999999999999,0.0430818572640419,0.00030517578125,0.24870031408785662
0.149,0.0431026667356491,0.00091552734375,0.2491721535380546
0.1494999999999999,0.043124035000801,0.0006103515625,0.2500261602496492
0.15,0.0431444533169269,0.0,0.25012710592008647
0.1504999999999999,0.0431653670966625,0.00030517578125,0.2506105920858097
0.151,0.0431862324476242,0.0006103515625,0.2510401646291314
0.1514999999999999,0.0432068444788455,0.0006103515625,0.25127291474355784
0.152,0.0432277992367744,0.0006103515625,0.25176504829382507
0.1524999999999999,0.0432487055659294,0.00091552734375,0.25220373592731393
0.153,0.0432696752250194,0.00091552734375,0.2526761931543811
0.1534999999999999,0.0432904846966266,0.00030517578125,0.2530159199953192
0.154,0.0433112606406211,0.00030517578125,0.2533305155932
0.1544999999999999,0.0433319509029388,0.0006103515625,0.2535879629778519
0.155,0.0433529391884803,0.0006103515625,0.25407347345259124
0.1554999999999999,0.0433733128011226,0.0,0.25409763148683007
0.156,0.0433944463729858,0.00091552734375,0.25471671328003
0.1564999999999999,0.0434151366353035,0.0006103515625,0.25498264204503635
0.157,0.0434357449412345,0.0006103515625,0.2552004538784785
0.1574999999999999,0.043456844985485,0.0,0.2557983902557876
0.158,0.0434776805341243,0.001220703125,0.2561782028019163
0.1584999999999999,0.0434980802237987,0.0006103515625,0.2562411834047398
0.159,0.0435191318392753,0.00030517578125,0.2568219575205984
0.1594999999999999,0.0435397997498512,0.00030517578125,0.25710063295651003
0.16,0.0435604527592659,0.0006103515625,0.25738365890568454
0.1604999999999999,0.0435815900564193,0.00091552734375,0.2580374407501551
0.161,0.0436020940542221,0.0006103515625,0.25819992661953717
0.1614999999999999,0.04362328723073,0.0006103515625,0.2588993371238498
0.162,0.0436438620090484,0.00030517578125,0.2591149847275284
