time [s],Lmtc [m],STIM [ ],Fsee [N]
0.0,0.0455018579959869,0.00030517578125,0.17641594638307778
0.0004999999999999,0.0455018728971481,0.00030517578125,0.17642517989886777
0.001,0.0455020926892757,0.00030517578125,0.17656758917499576
0.0014999999999999,0.0455018430948257,-0.00030517578125,0.1764025059527446
0.002,0.0455019548535347,0.00030517578125,0.1764750124876518
0.0024999999999999,0.045502133667469,0.0,0.17659004830208636
0.003,0.0455022118985652,0.00030517578125,0.1766379051174068
0.0034999999999999,0.0455019325017929,0.00030517578125,0.17645234986338876
0.004,0.0455020442605018,0.0006103515625,0.17652412918724622
0.0044999999999999,0.0455020107328891,0.0,0.17650031240308028
0.005,0.0455019883811473,0.0,0.17648413051333928
0.0054999999999999,0.0455018393695354,0.0006103515625,0.17638575040526885
0.006,0.0455020293593406,0.0006103515625,0.17650939229052362
0.0064999999999999,0.0455020293593406,0.0,0.17650755987584152
0.007,0.0455014705657959,0.00030517578125,0.17614359793430723
0.0074999999999999,0.0455004870891571,0.0006103515625,0.17551850458955484
0.008,0.0454977042973041,0.0006103515625,0.17375848682670936
0.0084999999999999,0.0454938225448131,0.00030517578125,0.17136482391554364
0.009,0.045488242059946,0.00030517578125,0.16799597253631796
0.0094999999999999,0.0454810336232185,0.0006103515625,0.163770678894723
0.01,0.0454721264541149,0.00030517578125,0.15872612346005316
0.0104999999999999,0.0454618744552135,0.0,0.15317968061040604
0.011,0.0454505942761898,0.00030517578125,0.14741185790417397
0.0114999999999999,0.0454384498298168,0.0006103515625,0.14160834959075394
0.012,0.0454257577657699,0.0,0.13603241314063533
0.0124999999999999,0.045413315296173,0.0006103515625,0.1311837102594384
0.013,0.045400220900774,0.00030517578125,0.1265802322961975
0.0134999999999999,0.0453868322074413,-0.00030517578125,0.12247580681552044
0.014,0.0453736335039138,0.00030517578125,0.1191209473942581
0.0144999999999999,0.0453603640198707,0.0006103515625,0.11631567441950869
0.015,0.0453473553061485,0.0,0.11414555342587167
0.0154999999999999,0.0453343316912651,0.0,0.11235413863281281
0.016,0.0453211069107055,0.0006103515625,0.11076898828881784
0.0164999999999999,0.0453084111213684,0.0,0.10966342432822307
0.017,0.0452951379120349,0.00030517578125,0.10840708475507893
0.0174999999999999,0.0452826730906963,0.0,0.10765178604588148
0.018,0.045269638299942,0.00030517578125,0.10664447845778985
0.0184999999999999,0.0452568680047988,0.00030517578125,0.10582219114435153
0.019,0.0452443324029445,0.0006103515625,0.10511818773194793
0.0194999999999999,0.0452315583825111,-0.00030517578125,0.10429558207946071
0.02,0.0452184863388538,0.00030517578125,0.10336163588006098
0.0204999999999999,0.0452059805393219,0.00030517578125,0.1027191733001945
0.021,0.0451931804418563,0.00030517578125,0.10191563387209289
0.0214999999999999,0.045180469751358,0.0,0.10116540729181517
0.022,0.0451673977077007,0.0006103515625,0.10025921375006838
0.0224999999999999,0.0451547428965568,0.00030517578125,0.09957150897629209
0.023,0.0451420955359935,0.0006103515625,0.09886815101349954
0.0234999999999999,0.0451294928789138,0.0006103515625,0.09817153051599546
0.024,0.0451167449355125,0.00030517578125,0.09740042686405963
0.0244999999999999,0.0451041124761104,0.00030517578125,0.0966859965334
0.025,0.0450915358960628,0.00030517578125,0.09598890259713799
0.0254999999999999,0.0450787395238876,0.0,0.0951895649256426
0.026,0.0450663156807422,0.00091552734375,0.09456487336354397
0.0264999999999999,0.0450535453855991,-0.0006103515625,0.09376900196014912
0.027,0.0450409166514873,0.00030517578125,0.09305156375001307
0.0274999999999999,0.0450283139944076,0.00030517578125,0.09234452376511879
0.028,0.0450154542922973,0.0006103515625,0.09152830373797234
0.0284999999999999,0.0450029708445072,0.00091552734375,0.09089257971768125
0.029,0.044990237802267,0.0,0.0901336949185463
0.0294999999999999,0.0449775196611881,0.0006103515625,0.08939365825610862
0.03,0.0449648611247539,0.00030517578125,0.08868595833029519
0.0304999999999999,0.0449520722031593,0.00091552734375,0.08792577725758152
0.031,0.0449393615126609,0.0,0.08721153061179779
0.0314999999999999,0.0449267737567424,0.00030517578125,0.08654995739632579
0.032,0.0449139103293418,0.0,0.08576769038662892
0.0324999999999999,0.0449012517929077,0.0006103515625,0.08508794846829783
0.033,0.0448887310922145,-0.0006103515625,0.08445926958172355
0.0334999999999999,0.0448759496212005,0.0006103515625,0.0837104819095239
0.034,0.0448636263608932,0.0006103515625,0.0831589836477206
0.0344999999999999,0.044850580394268,0.00030517578125,0.08228981348793281
0.035,0.044838011264801,0.00030517578125,0.08165505728741174
0.0354999999999999,0.0448251962661743,0.0006103515625,0.08091191479487797
0.036,0.0448125936090946,0.0,0.08026769490291183
0.0364999999999999,0.0447997599840164,0.00030517578125,0.07952559696043429
0.037,0.0447871461510658,0.00030517578125,0.07888546568921777
0.0374999999999999,0.0447745956480503,0.00091552734375,0.07826250682795244
0.038,0.0447618030011653,0.0006103515625,0.07753546837430138
0.0384999999999999,0.0447489358484745,0.00030517578125,0.07679436107641203
0.039,0.0447363853454589,0.0006103515625,0.07619289827050964
0.0394999999999999,0.044723454862833,0.00030517578125,0.0754323036623893
0.04,0.0447109267115592,0.00030517578125,0.07484858936310748
0.0404999999999999,0.0446984507143497,0.00030517578125,0.07426791665421813
0.041,0.0446856804192066,0.00091552734375,0.07355983983013636
0.0414999999999999,0.0446729324758052,0.0006103515625,0.07287397237980427
0.042,0.0446603372693061,0.0006103515625,0.07225447362955446
0.0424999999999999,0.0446477606892585,-0.00030517578125,0.07163754890105864
0.043,0.0446347333490848,0.00030517578125,0.07084779229200439
0.0434999999999999,0.0446224175393581,0.00030517578125,0.07035465407476062
0.044,0.0446096397936344,0.00030517578125,0.06965900040400787
0.0444999999999999,0.0445967130362987,0.0006103515625,0.06892317919225639
0.045,0.0445841029286384,0.0,0.06832649334620008
0.0454999999999999,0.0445715524256229,0.0,0.06774378410105561
0.046,0.0445589758455753,0.00091552734375,0.06714234491768277
0.0464999999999999,0.0445459447801113,0.0,0.06637207744277018
0.047,0.044533621519804,0.0,0.06588947674058517
0.0474999999999999,0.0445206724107265,0.0006103515625,0.06515310902582792
0.048,0.0445083528757095,0.0,0.06466807953186458
0.0484999999999999,0.0444952622056007,0.0,0.06388323484954438
0.049,0.044482409954071,0.00030517578125,0.06322033008219566
0.0494999999999999,0.0444697849452495,0.00030517578125,0.06264765155787898
0.05,0.0444572009146213,0.0,0.062082236996233144
0.0504999999999999,0.0444444492459297,0.00030517578125,0.06145096143004319
0.051,0.0444317273795604,0.0,0.06083672744717577
0.0514999999999999,0.0444189645349979,0.0006103515625,0.0602117170466707
0.052,0.044406309723854,-0.00030517578125,0.05963025733347554
0.0524999999999999,0.0443935729563236,-0.00030517578125,0.059018645622510815
0.053,0.0443808548152446,0.0,0.058418017594475985
0.0534999999999999,0.0443681143224239,0.0006103515625,0.05781248419346005
0.054,0.0443554744124412,0.00030517578125,0.05724542128797018
0.0544999999999999,0.0443425215780735,0.0006103515625,0.05656992180190255
0.055,0.0443300046026706,0.0,0.056060004065476406
0.0554999999999999,0.0443174019455909,0.0,0.05550844556534761
0.056,0.0443046987056732,0.00030517578125,0.05491939417061005
0.0564999999999999,0.0442919395864009,0.00030517578125,0.0543156466837087
0.057,0.0442793555557727,-0.00030517578125,0.05377688030657976
0.0574999999999999,0.044266864657402,0.00030517578125,0.053264483316665785
0.058,0.0442539155483245,0.00030517578125,0.052593222714520015
0.0584999999999999,0.044241227209568,0.00030517578125,0.05202784292670266
0.059,0.0442286618053913,0.0,0.05150403042485679
0.0595,0.044215902686119,0.0,0.050912716350049195
0.06,0.044203195720911,0.0006103515625,0.050345884287004115
0.0605,0.0441905073821544,0.00030517578125,0.049788468126238744
0.061,0.0441778264939785,0.0,0.04923573153713235
0.0615,0.0441651716828346,-0.00030517578125,0.04869320899266146
0.062,0.0441524647176265,0.00030517578125,0.04813490622121308
0.0625,0.0441397875547409,0.0,0.0475897781738209
0.0629999999999999,0.0441271513700485,0.0006103515625,0.04705945044278049
0.0635,0.044114626944065,0.00091552734375,0.04656415676686329
0.0639999999999999,0.0441016405820846,0.00030517578125,0.04592093806705417
0.0645,0.0440890863537788,-0.0006103515625,0.04543037772221776
0.0649999999999999,0.0440764129161834,0.0,0.044897753252146254
0.0655,0.0440635830163955,-0.0006103515625,0.04432054427503086
0.0659999999999999,0.0440506748855114,0.0,0.043730152293408917
0.0665,0.0440381802618503,0.0,0.043275757939002034
0.0669999999999999,0.0440255068242549,0.00030517578125,0.04275796606015086
0.0675,0.0440127812325954,0.0,0.04222595784870881
0.0679999999999999,0.0440003089606761,0.0,0.041772889279148386
0.0685,0.0439875423908233,0.0006103515625,0.04122535868259154
0.0689999999999999,0.0439749062061309,0.0006103515625,0.04072374914694999
0.0695,0.043962113559246,0.0,0.040177437816398265
0.0699999999999999,0.0439494885504245,0.00030517578125,0.039687858467044555
0.0705,0.0439364537596702,0.00030517578125,0.03908070826982953
0.0709999999999999,0.0439237542450428,0.0,0.03858795540429377
0.0715,0.0439113266766071,0.0,0.03817243799766204
0.0719999999999999,0.0438985601067543,0.0,0.03765032330024448
0.0725,0.043885949999094,0.00030517578125,0.0371786795399449
0.0729999999999999,0.0438730753958225,0.0,0.03663236745117039
0.0735,0.0438604578375816,0.00030517578125,0.03616778093657319
0.0739999999999999,0.0438477993011474,0.00030517578125,0.03569046798506615
0.0745,0.0438351891934871,0.0006103515625,0.03522742917333956
0.0749999999999999,0.0438224859535694,0.0,0.034738418121629554
0.0755,0.0438098534941673,0.00030517578125,0.034272199428227734
0.0759999999999999,0.0437971726059913,-0.00030517578125,0.03379368173563337
0.0765,0.0437844209372997,0.00030517578125,0.0332995617321069
0.0769999999999999,0.0437715761363506,0.0006103515625,0.032786543340148924
0.0775,0.0437587834894657,0.0006103515625,0.032295780623262105
0.0779999999999999,0.0437461696565151,-0.00030517578125,0.03185736312729024
0.0785,0.043733287602663,-0.0006103515625,0.03134807133114505
0.0789999999999999,0.043720606714487,0.00030517578125,0.03089970285475829
0.0795,0.0437079705297946,-0.00030517578125,0.03046296939218314
0.0799999999999999,0.0436955578625202,0.00030517578125,0.030082351264281222
0.0805,0.0436825230717659,-0.00030517578125,0.029537447471367984
0.0809999999999999,0.0436698161065578,0.0006103515625,0.029090348916762907
0.0815,0.043656937777996,0.00030517578125,0.028602438110181427
0.0819999999999999,0.043644580990076,0.0,0.02825117156258549
0.0825,0.0436318777501583,0.0006103515625,0.027805114467058176
0.0829999999999999,0.0436190068721771,0.0006103515625,0.0273216252317309
0.0835,0.0436062812805175,0.00030517578125,0.02688176352866547
0.0839999999999999,0.0435935631394386,0.00030517578125,0.026446723048902044
0.0845,0.043580874800682,0.0006103515625,0.02602156517491151
0.0849999999999999,0.0435680747032165,-0.00030517578125,0.025571899624639287
0.0855,0.0435553677380085,-0.00030517578125,0.025149170118971435
0.0859999999999999,0.0435428731143474,0.0006103515625,0.024777845844844743
0.0865,0.043530236929655,0.0006103515625,0.02436992761195769
0.0869999999999999,0.0435175634920597,0.0,0.023954627929025807
0.0875,0.043505024164915,-0.0006103515625,0.023572201559024022
0.0879999999999999,0.0434922948479652,0.00030517578125,0.023145711237202153
0.0885,0.0434797741472721,0.0006103515625,0.022770281630354515
0.0889999999999999,0.0434671901166439,0.00030517578125,0.022379405295774178
0.0895,0.0434542149305343,0.00030517578125,0.021903826915910793
0.0899999999999999,0.0434416979551315,0.0,0.021539648380409452
0.0905,0.0434290505945682,0.0006103515625,0.021145764445869537
0.0909999999999999,0.0434162281453609,0.00091552734375,0.020716843383000876
0.0915,0.0434035807847976,0.0006103515625,0.020331809690364033
0.0919999999999999,0.0433908998966217,0.0,0.01994164727198831
0.0925,0.043378110975027,0.0006103515625,0.019531954130741453
0.0929999999999999,0.0433654598891735,0.00030517578125,0.0191561389963621
0.0935,0.0433527268469333,0.0006103515625,0.01876550865972315
0.0939999999999999,0.0433399602770805,-0.00030517578125,0.018372036860949986
0.0945,0.0433273315429687,-0.00030517578125,0.018010610249572276
0.0949999999999999,0.0433145761489868,0.0,0.01762529658892979
0.0955,0.0433019138872623,0.00091552734375,0.01726247503309128
0.0959999999999999,0.043289165943861,-0.00030517578125,0.016885067796726563
0.0965,0.0432765185832977,0.0006103515625,0.01653079553165777
0.0969999999999999,0.0432640314102172,0.0006103515625,0.016208648354148123
0.0975,0.0432512164115905,0.0006103515625,0.015823406419164788
0.0979999999999999,0.0432387851178646,0.00030517578125,0.015515388671779009
0.0985,0.0432256273925304,0.0006103515625,0.015071649025779276
0.0989999999999999,0.0432131253182888,0.00030517578125,0.014759975234002083
0.0995,0.0432004295289516,0.0,0.014412237000974354
0.0999999999999999,0.0431877970695495,0.00030517578125,0.014078782976664669
0.1005,0.0431749857962131,0.0,0.013715733423515055
0.1009999999999999,0.0431625172495842,0.0,0.013417462860722835
0.1015,0.0431495159864425,0.0,0.013026706264053634
0.1019999999999999,0.043137103319168,0.00030517578125,0.012744443578746946
0.1025,0.0431242138147354,0.0006103515625,0.012380369036204236
0.1029999999999999,0.0431115925312042,-0.00030517578125,0.012067255848010836
0.1035,0.0430991128087043,0.0,0.01177894554111259
0.1039999999999999,0.0430863387882709,0.0,0.011442832536399983
0.1045,0.0430735573172569,0.00030517578125,0.011110358511634975
0.1049999999999999,0.0430608391761779,0.00030517578125,0.010792525138094394
0.1055,0.0430481806397438,0.001220703125,0.01048735272093721
0.1059999999999999,0.0430356971919536,0.0,0.010211459486552941
0.1065,0.043022945523262,0.00030517578125,0.00989558862957645
0.1069999999999999,0.0430099479854106,0.00030517578125,0.009547838056486334
0.1075,0.0429972782731056,0.0,0.00925555216936629
0.1079999999999999,0.0429843850433826,0.0,0.008934056928989681
0.1085,0.0429720766842365,0.00030517578125,0.008700669341358951
0.1089999999999999,0.0429594069719314,0.0,0.008414969348748972
0.1095,0.0429466441273689,0.00091552734375,0.008119774580608355
0.1099999999999999,0.0429339595139026,0.00030517578125,0.007839498354639709
0.1105,0.0429211072623729,0.00030517578125,0.007540522573727253
0.1109999999999999,0.0429083965718746,0.00030517578125,0.007265348779677471
0.1115,0.0428956411778926,-0.00030517578125,0.006988076959353162
0.1119999999999999,0.0428830161690712,0.00030517578125,0.00673120129410495
0.1125,0.0428701415657997,-0.00030517578125,0.006446452335371387
0.1129999999999999,0.0428577400743961,0.00091552734375,0.006223952398640895
0.1135,0.0428449437022209,0.0006103515625,0.00595539341910214
0.1139999999999999,0.0428320802748203,0.00091552734375,0.005684049042036986
0.1145,0.0428192652761936,-0.00030517578125,0.00542369303081139
0.1149999999999999,0.0428066104650497,0.00030517578125,0.005185863175418926
0.1155,0.0427940115332603,0.00030517578125,0.004957320861727438
0.1159999999999999,0.0427811555564403,0.00030517578125,0.004704692962916935
0.1165,0.0427684597671031,0.0006103515625,0.004473969087298186
0.1169999999999999,0.0427556373178958,-0.00030517578125,0.004234591859166618
0.1175,0.0427432656288147,0.0,0.004044138003964745
0.118,0.0427303910255432,0.00030517578125,0.0038072682503008846
0.1185,0.0427176989614963,-0.00030517578125,0.003593135701600339
0.119,0.0427049472928047,0.0,0.003378021107575895
0.1195,0.042692132294178,0.0006103515625,0.003162373659931504
0.12,0.0426798090338707,0.0,0.002993426437485401
0.1205,0.0426669903099536,0.0,0.002785895546022912
0.121,0.0426543988287448,0.0006103515625,0.0026020916933977645
0.1215,0.0426417961716651,0.00030517578125,0.002421622796499651
0.122,0.0426289290189743,0.0006103515625,0.002226379099943381
0.1225,0.0426162779331207,0.0,0.002052898646609337
0.123,0.0426038727164268,0.0006103515625,0.001901000468937663
0.1235,0.0425909347832202,0.00030517578125,0.0017184679860215565
0.124,0.0425780825316906,0.0006103515625,0.001548974069989828
0.1245,0.0425658412277698,0.0006103515625,0.0014220235792526956
0.125,0.0425530597567558,0.00030517578125,0.0012682787630593963
0.1254999999999999,0.0425402112305164,0.00030517578125,0.0011182776409997912
0.126,0.0425276271998882,0.0006103515625,0.0009890212874279914
0.1264999999999999,0.0425150878727436,0.0006103515625,0.000868004870645589
0.127,0.042502287775278,0.00030517578125,0.0007421522441231677
0.1274999999999999,0.04248958081007,0.00030517578125,0.0006283245925313277
0.128,0.0424768775701522,0.0,0.0005226634007711689
0.1284999999999999,0.0424640886485576,0.00030517578125,0.0004226302981214046
0.129,0.0424512773752212,0.00030517578125,0.00033135051689482117
0.1294999999999999,0.0424387939274311,0.0,0.0002581513035392027
0.13,0.0424258820712566,0.00030517578125,0.00018384188210996305
0.1304999999999999,0.0424131266772747,0.00030517578125,0.0001239556725545013
0.131,0.0424005463719368,0.00030517578125,7.748808867698181e-05
0.1314999999999999,0.0423877127468586,0.00030517578125,3.881763012639697e-05
0.132,0.042375024408102,0.00030517578125,1.3878275960542095e-05
0.1324999999999999,0.0423621237277984,0.0006103515625,1.0125565108238273e-06
0.133,0.0423497594892978,0.00091552734375,0.0
0.1334999999999999,0.0423368103802204,0.0006103515625,0.0
0.134,0.0423241034150123,0.0006103515625,0.0
0.1344999999999999,0.0423114486038684,0.00030517578125,0.0
0.135,0.042298998683691,0.00030517578125,0.0
0.1354999999999999,0.0422859564423561,0.0006103515625,0.0
0.136,0.0422735698521137,-0.00030517578125,0.0
0.1364999999999999,0.0422609597444534,0.00030517578125,0.0
0.137,0.0422478169202804,0.0,0.0
0.1374999999999999,0.0422353558242321,-0.00030517578125,0.0
0.138,0.0422224774956703,0.00030517578125,0.0
0.1384999999999999,0.0422100387513637,0.00030517578125,0.0
0.139,0.04219726100564,0.00030517578125,0.0
0.1394999999999999,0.0421846844255924,0.00030517578125,0.0
0.14,0.0421717911958694,0.00091552734375,0.0
0.1404999999999999,0.0421590320765972,-0.00030517578125,0.0
0.141,0.0421464294195175,0.00030517578125,0.0
0.1414999999999999,0.0421337336301803,0.0,0.0
0.142,0.04212087392807,0.0,0.0
0.1424999999999999,0.0421081744134426,0.0006103515625,0.0
0.143,0.0420956537127494,0.00030517578125,0.0
0.1434999999999999,0.0420827865600585,0.00030517578125,0.0
0.144,0.0420701429247856,0.00030517578125,0.0
0.1444999999999999,0.0420570820569992,0.0,0.0
0.145,0.0420444086194038,0.0,0.0
0.1454999999999999,0.0420316196978092,0.0,0.0
0.146,0.0420190393924713,-0.00030517578125,0.0
0.1464999999999999,0.0420065633952617,0.0006103515625,0.0
0.147,0.0419935509562492,0.0,0.0
0.1474999999999999,0.0419810861349105,0.00030517578125,0.0
0.148,0.0419685319066047,0.00091552734375,0.0
0.1484999999999999,0.0419558100402355,0.00030517578125,0.0
0.149,0.0419433265924453,0.00030517578125,0.0
0.1494999999999999,0.0419305004179477,0.0,0.0
0.15,0.041917759925127,-0.0006103515625,0.0
0.1504999999999999,0.0419053360819816,0.0,0.0
0.151,0.0418926142156124,0.00030517578125,0.0
0.1514999999999999,0.0418800972402095,0.00030517578125,0.0
0.152,0.0418671816587448,0.0,0.0
0.1524999999999999,0.0418545193970203,0.00030517578125,0.0
0.153,0.0418419055640697,0.0006103515625,0.0
0.1534999999999999,0.0418293178081512,-0.00030517578125,0.0
0.154,0.0418165475130081,0.00030517578125,0.0
0.1544999999999999,0.0418039485812187,0.00030517578125,0.0
0.155,0.041791133582592,0.0006103515625,0.0
0.1554999999999999,0.0417782887816429,0.0,0.0
0.156,0.0417660549283027,0.0,0.0
0.1564999999999999,0.0417532511055469,0.0006103515625,0.0
0.157,0.0417405739426612,0.0,0.0
0.1574999999999999,0.0417277254164218,0.0,0.0
0.158,0.0417150668799877,0.0,0.0
0.1584999999999999,0.0417023859918117,0.00030517578125,0.0
0.159,0.0416896194219589,0.00030517578125,0.0
0.1594999999999999,0.0416771806776523,0.0,0.0
