time [s],Lmtc [m],STIM [ ],Fsee [N]
0.0,0.0455024279654026,0.00030517578125,0.17644513931287506
0.0004999999999999,0.0455023311078548,0.00091552734375,0.17638206321982575
0.001,0.0455019921064376,0.0,0.176164451655199
0.0014999999999999,0.0455020479857921,0.00030517578125,0.17620796343073955
0.002,0.04550227150321,0.0,0.17635842287081585
0.0024999999999999,0.0455021411180496,0.00091552734375,0.1762759721886662
0.003,0.0455021820962429,0.00030517578125,0.1763066414685165
0.0034999999999999,0.0455024056136608,0.00030517578125,0.17645439582017966
0.004,0.0455021671950817,0.0,0.17629935731110513
0.0044999999999999,0.0455021634697914,0.00030517578125,0.17630041567602767
0.005,0.0455022156238555,0.0006103515625,0.17633752379370582
0.0054999999999999,0.0455024428665638,0.00030517578125,0.1764868596537086
0.006,0.0455021820962429,0.00030517578125,0.17631662723536767
0.0064999999999999,0.0455022491514682,0.0006103515625,0.17636301385554748
0.007,0.0455020144581794,0.0006103515625,0.1762131458969619
0.0074999999999999,0.0455012619495391,0.00091552734375,0.17573463470038955
0.008,0.0454998463392257,0.00030517578125,0.1748445898779418
0.0084999999999999,0.045497391372919,-0.0006103515625,0.1733202739329859
0.009,0.0454931333661079,0.00030517578125,0.17070459061039012
0.0094999999999999,0.0454875491559505,0.0,0.1673646124064753
0.01,0.0454802997410297,0.0006103515625,0.1631448719369405
0.0104999999999999,0.0454711504280567,0.00030517578125,0.15799096737400856
0.011,0.0454612299799919,0.00030517578125,0.1526893748036732
0.0114999999999999,0.045450635254383,0.00030517578125,0.14735762749965664
0.012,0.045439526438713,0.00091552734375,0.1421453121237966
0.0124999999999999,0.045427318662405,0.0006103515625,0.13678272969055755
0.013,0.0454158782958984,0.00030517578125,0.13238639089997842
0.0134999999999999,0.0454039238393306,0.0,0.12822031482030946
0.014,0.0453919433057308,0.00030517578125,0.12458045668728188
0.0144999999999999,0.0453796163201332,0.0,0.12128986696149907
0.015,0.0453680232167243,0.001220703125,0.11887933372181016
0.0154999999999999,0.0453559793531894,0.0,0.11663509171350692
0.016,0.0453439205884933,-0.00030517578125,0.1147542758066258
0.0164999999999999,0.0453319177031517,0.00091552734375,0.11319864258055747
0.017,0.0453204363584518,0.0,0.11211088835993314
0.0174999999999999,0.0453082993626594,0.00030517578125,0.11083183414255378
0.018,0.0452970787882804,0.00091552734375,0.11012647066426286
0.0184999999999999,0.0452853962779045,0.0,0.10921966983257554
0.019,0.045273557305336,0.00030517578125,0.1083008466141628
0.0194999999999999,0.0452620945870876,0.0006103515625,0.10760942931815047
0.02,0.0452504120767116,0.00030517578125,0.10681952012485109
0.0204999999999999,0.0452385954558849,0.0,0.10599530399923922
0.021,0.045227188616991,0.00030517578125,0.10538697142132439
0.0214999999999999,0.0452152304351329,0.0006103515625,0.10451287033478582
0.022,0.0452038720250129,0.00091552734375,0.10395077962364206
0.0224999999999999,0.0451922416687011,0.00030517578125,0.10323629760709427
0.023,0.0451805517077446,0.00030517578125,0.10250309517441976
0.0234999999999999,0.0451692566275596,0.00030517578125,0.10195646687234924
0.024,0.045156966894865,0.0006103515625,0.10094141533111443
0.0244999999999999,0.0451456010341644,0.0006103515625,0.10040936538206023
0.025,0.0451343208551406,-0.00030517578125,0.09987631680051456
0.0254999999999999,0.0451224893331527,0.00030517578125,0.09907094442677364
0.026,0.0451109111309051,0.0006103515625,0.09840825420131256
0.0264999999999999,0.0450994335114955,0.0006103515625,0.09778560102418771
0.027,0.0450879223644733,0.00030517578125,0.09713722615464032
0.0274999999999999,0.0450762137770652,0.00030517578125,0.09640109167960646
0.028,0.0450645759701728,0.0006103515625,0.09571307430891351
0.0284999999999999,0.0450534299015998,0.00030517578125,0.09523990537766845
0.029,0.0450417511165142,0.0,0.0944957766866536
0.0294999999999999,0.0450303107500076,0.00091552734375,0.09387491882643248
0.03,0.0450187288224697,0.0006103515625,0.09318694406371592
0.0304999999999999,0.0450072810053825,0.0006103515625,0.09256595677906213
0.031,0.0449952967464923,0.00030517578125,0.09171331309367282
0.0314999999999999,0.0449837297201156,0.0006103515625,0.09108216810051965
0.032,0.0449723377823829,0.00091552734375,0.09052000200005912
0.0324999999999999,0.0449607893824577,0.0006103515625,0.08987385749204986
0.033,0.0449492745101451,0.0006103515625,0.08924298527297965
0.0334999999999999,0.0449377670884132,0.0006103515625,0.08861356396721919
0.034,0.0449262410402298,-0.00030517578125,0.0879751076917127
0.0344999999999999,0.0449145175516605,0.00030517578125,0.0872567880810335
0.035,0.0449030920863151,0.00030517578125,0.08668052532212082
0.0354999999999999,0.0448914654552936,0.00091552734375,0.08601015371204851
0.036,0.0448798611760139,-0.00030517578125,0.0853586878778601
0.0364999999999999,0.0448685213923454,0.0006103515625,0.08482008611275434
0.037,0.0448569096624851,0.00030517578125,0.08415250301426558
0.0374999999999999,0.0448452271521091,0.0006103515625,0.08346769170620921
0.038,0.0448335856199264,0.0006103515625,0.0828141517603801
0.0384999999999999,0.0448224768042564,0.00030517578125,0.08238243671029151
0.039,0.0448104739189147,0.00030517578125,0.08155298092040407
0.0394999999999999,0.0447990074753761,0.00030517578125,0.08098349733042412
0.04,0.0447878502309322,0.00030517578125,0.08052797496645474
0.0404999999999999,0.0447758957743644,0.0006103515625,0.07972597113996516
0.041,0.0447642244398593,0.00030517578125,0.07907847217707177
0.0414999999999999,0.0447527840733528,0.0006103515625,0.07852980052946003
0.042,0.0447412207722663,0.0006103515625,0.07792132098630207
0.0424999999999999,0.0447295606136322,-0.00030517578125,0.07727699983057401
0.043,0.044718075543642,0.0006103515625,0.07671072135233895
0.0434999999999999,0.044706393033266,-0.00030517578125,0.07606180882560158
0.044,0.0446948260068893,0.00030517578125,0.075469181917914
0.0444999999999999,0.0446832962334156,0.00030517578125,0.07489072480150816
0.045,0.0446717850863933,0.00030517578125,0.07431719396429057
0.0454999999999999,0.0446602702140808,0.00030517578125,0.07373942249203451
0.046,0.0446488372981548,0.00030517578125,0.0731918084991239
0.0464999999999999,0.0446371212601661,0.0006103515625,0.07253055792876595
0.047,0.0446254387497901,0.0006103515625,0.07189877421713828
0.0474999999999999,0.0446139089763164,0.00030517578125,0.07133479464585218
0.048,0.0446024313569068,0.0006103515625,0.07078797682452401
0.0484999999999999,0.0445907600224018,0.00030517578125,0.07016387600909582
0.049,0.0445790514349937,0.00030517578125,0.06953641932097059
0.0494999999999999,0.0445676781237125,0.00030517578125,0.06904450238598418
0.05,0.0445560924708843,0.00030517578125,0.06845893839703718
0.0504999999999999,0.0445446036756038,0.0,0.06791424518569396
0.051,0.0445326715707778,0.0,0.06720297240672647
0.0514999999999999,0.0445215031504631,0.0006103515625,0.06680025416314768
0.052,0.0445097871124744,0.0,0.06616719049096804
0.0524999999999999,0.0444984398782253,0.00030517578125,0.06568387537084415
0.053,0.0444866716861724,0.00030517578125,0.06503448426920062
0.0534999999999999,0.0444751381874084,0.0,0.06448869976024452
0.054,0.0444635190069675,0.0006103515625,0.0639113840597147
0.0544999999999999,0.0444517061114311,0.00030517578125,0.06327067941205548
0.055,0.0444400459527969,0.0006103515625,0.06270233871221807
0.0554999999999999,0.0444288961589336,0.0006103515625,0.06231945558342285
0.056,0.0444170981645584,0.0,0.0616773386972766
0.0564999999999999,0.0444055646657943,0.00030517578125,0.06114812302891929
0.057,0.0443938784301281,0.0006103515625,0.060563791667710865
0.0574999999999999,0.0443821810185909,0.00030517578125,0.05998389571138156
0.058,0.0443710125982761,0.00091552734375,0.05959709927917578
0.0584999999999999,0.0443589016795158,0.0006103515625,0.058857740953821895
0.059,0.0443475060164928,0.00030517578125,0.05840409118123826
0.0595,0.0443362295627594,0.00030517578125,0.057978508804270176
0.06,0.0443243198096752,0.00030517578125,0.05731814594578058
0.0605,0.0443128570914268,0.00030517578125,0.056834740133737925
0.061,0.0443014726042747,0.0006103515625,0.056371738475129586
0.0615,0.0442899316549301,0.00091552734375,0.055847154840259816
0.062,0.0442781895399093,0.0006103515625,0.055256648197147394
0.0625,0.0442663989961147,0.00030517578125,0.05466282866547445
0.0629999999999999,0.0442553125321865,0.00030517578125,0.05431918762012008
0.0635,0.0442434214055538,0.0,0.0536801115682737
0.0639999999999999,0.0442317947745323,-0.00030517578125,0.05315191944946892
0.0645,0.0442204922437667,0.0006103515625,0.05273420133070141
0.0649999999999999,0.0442090816795825,0.0006103515625,0.05226701180458192
0.0655,0.0441972613334655,0.0006103515625,0.051661115030057055
0.0659999999999999,0.0441857725381851,0.00030517578125,0.05118193763217823
0.0665,0.0441739484667778,0.0,0.050591262309561146
0.0669999999999999,0.0441626161336898,0.00030517578125,0.05017588822257461
0.0675,0.0441509261727333,0.0006103515625,0.04963327706881031
0.0679999999999999,0.0441394597291946,0.00030517578125,0.049171414860918784
0.0685,0.0441279970109462,0.00030517578125,0.04870720558113093
0.0689999999999999,0.0441162809729576,0.00030517578125,0.048159689466551775
0.0695,0.0441047921776771,0.00030517578125,0.04769476141892028
0.0699999999999999,0.0440931804478168,0.0006103515625,0.04718907458359465
0.0705,0.0440816208720207,0.0,0.04670436290617778
0.0709999999999999,0.0440701581537723,0.00030517578125,0.04625160106997587
0.0715,0.0440583601593971,0.00030517578125,0.04569195025075067
0.0719999999999999,0.044047076255083,0.00030517578125,0.04530517938880748
0.0725,0.0440353080630302,0.0006103515625,0.04475772801852582
0.0729999999999999,0.0440235957503318,0.00091552734375,0.04424026108091776
0.0735,0.0440118610858917,0.0006103515625,0.043724126468155385
0.0739999999999999,0.0440003387629985,0.00030517578125,0.04328056909693639
0.0745,0.0439889803528785,0.00030517578125,0.04288394998895904
0.0749999999999999,0.0439772196114063,0.0,0.04235774960483346
0.0755,0.0439655408263206,0.00091552734375,0.041866742161142785
0.0759999999999999,0.0439540967345237,0.00152587890625,0.04145109294714868
0.0765,0.0439424030482769,0.0006103515625,0.04095679821476331
0.0769999999999999,0.0439309179782867,0.0,0.040530677143214844
0.0775,0.0439192727208137,0.00091552734375,0.04005514994896813
0.0779999999999999,0.0439076274633407,0.0006103515625,0.03958440922441778
0.0785,0.0438959114253521,0.0,0.03909713521187972
0.0789999999999999,0.0438847467303276,0.0006103515625,0.038775310483895875
0.0795,0.0438729226589202,0.0006103515625,0.03824932341762087
0.0799999999999999,0.0438611470162868,0.0006103515625,0.037750479828586495
0.0805,0.0438497066497802,0.00030517578125,0.037355452385882046
0.0809999999999999,0.043838158249855,0.00030517578125,0.03692516062100318
0.0815,0.0438264831900596,0.00091552734375,0.03646011679032602
0.0819999999999999,0.0438149124383926,0.0006103515625,0.036029754688450516
0.0825,0.0438035391271114,0.00030517578125,0.035654979486628074
0.0829999999999999,0.0437919311225414,0.00030517578125,0.03520947390330332
0.0835,0.0437802486121654,0.00091552734375,0.0347477358563037
0.0839999999999999,0.0437686182558536,0.0,0.03430659961856043
0.0845,0.0437571369111537,0.0006103515625,0.03390946335680798
0.0849999999999999,0.0437454991042614,-0.00030517578125,0.03346847412126144
0.0855,0.0437339544296264,0.0,0.03305658731483487
0.0859999999999999,0.0437225736677646,0.0006103515625,0.032689072093493796
0.0865,0.0437109246850013,0.0,0.032246095881474944
0.0869999999999999,0.0436995290219783,0.00030517578125,0.0318752386762043
0.0875,0.0436876639723777,0.0006103515625,0.03137846418083416
0.0879999999999999,0.0436762683093547,0.0006103515625,0.03101651953495944
0.0885,0.0436643399298191,0.00030517578125,0.030513214037258943
0.0889999999999999,0.0436529815196991,0.00091552734375,0.030170104714569514
0.0895,0.0436412058770656,0.0006103515625,0.02971484498766548
0.0899999999999999,0.0436298437416553,0.0006103515625,0.029372702479904356
0.0905,0.0436180867254734,0.0006103515625,0.02892606131001763
0.0909999999999999,0.0436066128313541,0.0006103515625,0.028558099329354946
0.0915,0.0435947328805923,0.00091552734375,0.02808815993732419
0.0919999999999999,0.0435830876231193,0.0,0.027687368211778147
0.0925,0.0435714907944202,0.00030517578125,0.027301369705388406
0.0929999999999999,0.0435596965253353,0.00030517578125,0.02686890904226611
0.0935,0.0435482785105705,0.00030517578125,0.026534134150935668
0.0939999999999999,0.0435368157923221,0.0,0.026184463091977844
0.0945,0.043525356799364,0.0006103515625,0.025833969790572633
0.0949999999999999,0.0435134544968605,0.00030517578125,0.025377160218385524
0.0955,0.0435022972524166,0.00030517578125,0.025106223261270676
0.0959999999999999,0.0434905774891376,0.00030517578125,0.024693791058028287
0.0965,0.0434791296720504,0.0006103515625,0.024350993982921235
0.0969999999999999,0.043467428535223,0.00030517578125,0.023948697576994582
0.0975,0.0434559993445873,0.0,0.023614214047883338
0.0979999999999999,0.0434444695711135,0.0006103515625,0.023255277201090233
0.0985,0.0434327647089958,0.0006103515625,0.022858430219094762
0.0989999999999999,0.0434213615953922,0.00030517578125,0.022534918129336938
0.0995,0.0434098541736602,0.0,0.022186321187953554
0.0999999999999999,0.0433982573449611,0.00030517578125,0.021819144749660006
0.1005,0.0433868095278739,0.00030517578125,0.021487753714352822
0.1009999999999999,0.0433754585683345,0.00030517578125,0.021177090223052048
0.1015,0.0433635935187339,0.0006103515625,0.02075399450900154
0.1019999999999999,0.0433518923819065,0.0006103515625,0.02037617004301013
0.1025,0.0433406420052051,0.0006103515625,0.02009895429975333
0.1029999999999999,0.0433288514614105,0.0,0.01970342972519939
0.1035,0.043317474424839,0.00030517578125,0.019401734928015314
0.1039999999999999,0.0433057695627212,0.0006103515625,0.019030566030685064
0.1045,0.0432942882180213,0.0006103515625,0.01871078211810123
0.1049999999999999,0.0432826913893222,0.0006103515625,0.018368146208937036
0.1055,0.0432712286710739,0.0006103515625,0.018055678521252692
0.1059999999999999,0.0432595461606979,0.0,0.017699731273938726
0.1065,0.0432478934526443,0.00030517578125,0.017354561855077843
0.1069999999999999,0.0432366579771041,0.00030517578125,0.017095140034140376
0.1075,0.0432247705757617,0.00030517578125,0.016705263093121335
0.1079999999999999,0.0432130955159664,0.00091552734375,0.01636533103784854
0.1085,0.043201558291912,-0.00030517578125,0.01605575880112669
0.1089999999999999,0.0431899353861808,0.0006103515625,0.015731525656968993
0.1095,0.0431784093379974,0.0006103515625,0.015428493618509566
0.1099999999999999,0.0431668199598789,0.0,0.015115086081726023
0.1105,0.0431553423404693,0.0006103515625,0.014824719614655037
0.1109999999999999,0.0431436412036418,0.0006103515625,0.014494459947627483
0.1115,0.0431318990886211,0.00030517578125,0.014161448896804906
0.1119999999999999,0.0431206747889518,0.0,0.01392537554618122
0.1125,0.0431088656187057,0.0006103515625,0.013582937455206775
0.1129999999999999,0.0430972911417484,0.0,0.013287761752957573
0.1135,0.0430857948958873,0.00091552734375,0.01300818112667819
0.1139999999999999,0.0430743172764778,0.00091552734375,0.012732810506559921
0.1145,0.0430629178881645,0.00030517578125,0.01247160112837229
0.1149999999999999,0.0430510938167572,0.00030517578125,0.012139584983537715
0.1155,0.0430395789444446,0.0006103515625,0.01186483739570891
0.1159999999999999,0.0430283695459365,0.00030517578125,0.011641351451669018
0.1165,0.0430161952972412,-0.00030517578125,0.011260203337211498
0.1169999999999999,0.0430047251284122,0.0006103515625,0.011002416738670978
0.1175,0.0429931543767452,0.0006103515625,0.010729567559261135
0.118,0.0429816357791423,0.0006103515625,0.010467119712433606
0.1185,0.0429698638617992,0.0006103515625,0.010167638572571103
0.119,0.0429585538804531,0.00091552734375,0.00994296142914587
0.1195,0.0429467931389808,0.00030517578125,0.009650091894636347
0.12,0.0429352261126041,0.0006103515625,0.009390725455476442
0.1205,0.0429238714277744,0.00030517578125,0.009164462672992034
0.121,0.042912270873785,0.0,0.008902784280207224
0.1215,0.0429004989564418,0.0006103515625,0.008620026620850386
0.122,0.042889054864645,0.00091552734375,0.008387913971359842
0.1225,0.0428773462772369,0.0,0.008120633231811001
0.123,0.0428657233715057,0.00030517578125,0.007869165180380765
0.1235,0.0428542755544185,0.0006103515625,0.007644094282864433
0.124,0.0428425520658493,0.0006103515625,0.007384163338633039
0.1245,0.0428310558199882,0.0006103515625,0.007157814081684818
0.125,0.0428194738924503,0.0006103515625,0.006922430422409858
0.1254999999999999,0.0428078360855579,0.0,0.006682975551746437
0.126,0.0427959077060222,0.00030517578125,0.006411454452441605
0.1264999999999999,0.0427843146026134,0.00030517578125,0.006186458459774692
0.127,0.0427728593349456,0.0006103515625,0.005980465243380474
0.1274999999999999,0.0427614524960517,0.00030517578125,0.00578158488781864
0.128,0.0427496880292892,0.00030517578125,0.005543170974292822
0.1284999999999999,0.0427382327616214,0.00030517578125,0.005343905514474822
0.129,0.0427267216145992,0.00091552734375,0.005140271712439467
0.1294999999999999,0.042715061455965,0.0006103515625,0.0049230350998164816
0.13,0.0427036695182323,0.00030517578125,0.004737791058561321
0.1304999999999999,0.0426919236779212,0.0006103515625,0.004517590391784663
0.131,0.0426804572343826,0.00091552734375,0.0043301686720641185
0.1314999999999999,0.0426688641309738,0.0,0.004132541252503679
0.132,0.0426571555435657,0.0006103515625,0.003927228756868264
0.1324999999999999,0.0426455698907375,0.0006103515625,0.0037378305014532215
0.133,0.0426339134573936,0.00030517578125,0.003545360740405865
0.1334999999999999,0.0426225662231445,0.00030517578125,0.003384414574169324
0.134,0.042611114680767,0.00091552734375,0.003216094032335372
0.1344999999999999,0.0425994507968425,0.00030517578125,0.0030324557967070847
0.135,0.0425878763198852,0.0,0.002860506410368025
0.1354999999999999,0.0425762496888637,0.00030517578125,0.002688102798026552
0.136,0.0425647757947444,0.00030517578125,0.002531671164865095
0.1364999999999999,0.0425529740750789,0.0,0.002353849438202232
0.137,0.0425417199730873,0.0006103515625,0.00222120762166728
0.1374999999999999,0.0425299294292926,0.0006103515625,0.0020528696608399077
0.138,0.0425185561180114,0.0006103515625,0.0019183067736412412
0.1384999999999999,0.0425068028271198,0.00030517578125,0.001761993865420758
0.139,0.0424953363835811,0.0006103515625,0.001629117009731601
0.1394999999999999,0.0424837656319141,0.0006103515625,0.001493789316415249
0.14,0.0424719601869583,0.0006103515625,0.0013497095032596565
0.1404999999999999,0.0424605868756771,0.0006103515625,0.0012352901422819987
0.141,0.0424487777054309,0.00030517578125,0.0011019992752629407
0.1414999999999999,0.0424371808767318,0.0006103515625,0.000985591922153117
0.142,0.0424257107079029,0.00030517578125,0.0008803011909243099
0.1424999999999999,0.0424142256379127,0.00030517578125,0.0007790640346702559
0.143,0.0424025543034076,0.0006103515625,0.0006752975003403139
0.1434999999999999,0.0423906780779361,0.001220703125,0.0005702965529873488
0.144,0.0423794984817504,0.0006103515625,0.0004970507068058341
0.1444999999999999,0.0423676557838916,0.0,0.0004066603065470265
0.145,0.0423561818897724,0.00030517578125,0.0003348856835256183
0.1454999999999999,0.0423446968197822,0.00091552734375,0.00026888734068680493
0.146,0.0423330701887607,0.00030517578125,0.0002061342603019678
0.1464999999999999,0.042321354150772,0.0006103515625,0.00014930159671590782
0.147,0.0423097684979438,0.0006103515625,0.00010306914184194358
0.1474999999999999,0.0422980785369873,0.0006103515625,6.356824390228267e-05
0.148,0.0422865897417068,0.0006103515625,3.5017941385254594e-05
0.1484999999999999,0.042274959385395,0.0006103515625,1.381837045237676e-05
0.149,0.0422635190188884,-0.00030517578125,2.6543173674529027e-06
0.1494999999999999,0.0422520488500595,0.0,0.0
0.15,0.0422402024269104,0.0006103515625,0.0
