time [s],Lmtc [m],STIM [ ],Fsee [N]
0.0,0.0415408909320831,0.00091552734375,0.14762980755660726
0.0004999999999999,0.041540689766407,0.00091552734375,0.14747359276242125
0.001,0.0415408462285995,0.0006103515625,0.14759962134439636
0.0014999999999999,0.0415408052504062,0.00030517578125,0.14756871727614831
0.002,0.0415407717227935,0.0,0.14754451555919113
0.0024999999999999,0.0415406636893749,0.0,0.14746294349234207
0.003,0.0415409617125988,0.0,0.14769934835093682
0.0034999999999999,0.0415407493710517,0.0006103515625,0.14753253871102598
0.004,0.0415408723056316,0.00030517578125,0.14763079006739627
0.0044999999999999,0.0415407866239547,0.0006103515625,0.147564107468759
0.005,0.0415408946573734,0.0,0.14764991423140028
0.0054999999999999,0.0415405444800853,0.0006103515625,0.1473774878516357
0.006,0.0415406376123428,0.00030517578125,0.1474572156939426
0.0064999999999999,0.041540503501892,-0.00030517578125,0.1473582728931577
0.007,0.0415404736995697,0.00030517578125,0.14734319161476905
0.0074999999999999,0.0415409617125988,0.00030517578125,0.14773064462814944
0.008,0.041540689766407,0.0,0.1475168863206661
0.0084999999999999,0.04154072701931,-0.00030517578125,0.14754886307043777
0.009,0.0415408723056316,0.0006103515625,0.14766395876994648
0.0094999999999999,0.0415408201515674,0.0006103515625,0.14762261156743783
0.01,0.0415407828986644,-0.00030517578125,0.14759375634969926
0.0104999999999999,0.041540827602148,0.0,0.1476293707124023
0.011,0.0415407940745353,0.00091552734375,0.1476031843984655
0.0114999999999999,0.0415404625236988,0.0,0.14734749793243734
0.012,0.0415391102433204,0.0006103515625,0.14630975172010496
0.0124999999999999,0.0415372401475906,0.00030517578125,0.14491035562730545
0.013,0.0415336675941944,0.0006103515625,0.14226103443363813
0.0134999999999999,0.0415285751223564,0.00030517578125,0.13857878464200096
0.014,0.0415215604007244,0.00030517578125,0.13364599544453307
0.0144999999999999,0.0415131412446498,0.0006103515625,0.12796556143686197
0.015,0.0415030494332313,0.00030517578125,0.12145032808311843
0.0154999999999999,0.0414923056960105,0.00091552734375,0.11493592955479096
0.016,0.0414806976914405,0.001220703125,0.10833390281332604
0.0164999999999999,0.0414683036506176,0.00091552734375,0.10177092504918067
0.017,0.0414558611810207,0.0006103515625,0.09576604706395472
0.0174999999999999,0.0414433367550373,0.00091552734375,0.09028796601467766
0.018,0.0414306819438934,0.00030517578125,0.08529396057578992
0.0184999999999999,0.0414180234074592,0.00091552734375,0.0808394220873418
0.019,0.0414051935076713,0.0006103515625,0.07679742856244706
0.0194999999999999,0.0413924381136894,0.0006103515625,0.07327248776035199
0.02,0.0413796678185462,0.0,0.0701627969914297
0.0204999999999999,0.0413676686584949,0.00030517578125,0.06780950381470963
0.021,0.0413552783429622,0.00030517578125,0.06551991348898212
0.0214999999999999,0.0413431599736213,0.0,0.06361063102559585
0.022,0.0413306690752506,0.00091552734375,0.06171055752012534
0.0224999999999999,0.0413183122873306,0.0006103515625,0.06005681001115776
0.023,0.0413061343133449,0.0006103515625,0.0586250445038526
0.0234999999999999,0.0412939265370368,0.00030517578125,0.057279304842868195
0.024,0.0412814393639564,0.00030517578125,0.055891312969220924
0.0244999999999999,0.0412692911922931,0.00030517578125,0.05474231686113727
0.025,0.0412570126354694,0.0006103515625,0.05358199968769606
0.0254999999999999,0.0412445627152919,0.001220703125,0.052394808949248736
0.026,0.0412325747311115,0.0006103515625,0.05145823918110508
0.0264999999999999,0.0412203036248683,0.0006103515625,0.0504105375274552
0.027,0.0412077158689498,0.0006103515625,0.04925837668227562
0.0274999999999999,0.0411955006420612,0.0006103515625,0.048307713621446584
0.028,0.0411834008991718,0.0,0.04741711949782107
0.0284999999999999,0.0411712490022182,0.0006103515625,0.04650865187529521
0.029,0.0411590076982975,0.0,0.0455716537618338
0.0294999999999999,0.0411467291414737,0.00030517578125,0.04463394400902591
0.03,0.0411343351006507,0.00030517578125,0.04366533387048149
0.0304999999999999,0.041122231632471,0.0006103515625,0.042831421194241964
0.031,0.0411101952195167,0.001220703125,0.04202338962014706
0.0314999999999999,0.0410978123545646,0.0006103515625,0.04107872962819173
0.032,0.0410857424139976,0.0006103515625,0.04027471287446686
0.0324999999999999,0.0410734862089157,0.00030517578125,0.03939905041240524
0.033,0.0410613641142845,0.0,0.038585689781135184
0.0334999999999999,0.0410490185022354,0.00030517578125,0.03769254823839762
0.034,0.0410368777811527,0.0006103515625,0.03689183418378025
0.0344999999999999,0.0410246551036834,0.00030517578125,0.036064896091806214
0.035,0.0410124473273754,0.001220703125,0.03525229908794683
0.0354999999999999,0.0410001240670681,0.00091552734375,0.0344063558302699
0.036,0.0409880578517913,0.00030517578125,0.03366516559650179
0.0364999999999999,0.04097580909729,0.0006103515625,0.03285977565984692
0.037,0.0409636944532394,0.00091552734375,0.032111043574157484
0.0374999999999999,0.0409509465098381,0.0006103515625,0.031149709171994364
0.038,0.040939126163721,0.0006103515625,0.030536145147067286
0.0384999999999999,0.0409271009266376,0.00030517578125,0.029840106134002415
0.039,0.0409148000180721,0.00091552734375,0.02905239493963662
0.0394999999999999,0.0409027598798275,0.00030517578125,0.028362985129152245
0.04,0.0408905558288097,0.00091552734375,0.027621515588868724
0.0404999999999999,0.0408780649304389,0.00030517578125,0.026798448070696583
0.041,0.0408659614622592,0.00030517578125,0.02611841552928679
0.0414999999999999,0.0408537983894348,0.0,0.025422478660615828
0.042,0.0408417023718357,0.0006103515625,0.02475312262567406
0.0424999999999999,0.0408289767801761,-0.00030517578125,0.02389818815217911
0.043,0.0408169813454151,0.0,0.02328969189124875
0.0434999999999999,0.0408047549426555,0.0,0.022611133611099607
0.044,0.0407925583422184,0.0,0.021949284804260456
0.0444999999999999,0.0407801903784275,0.00030517578125,0.021245531124635956
0.045,0.0407682880759239,0.0006103515625,0.020685824926988033
0.0454999999999999,0.0407558679580688,0.00030517578125,0.019979461086831567
0.046,0.0407435782253742,0.00030517578125,0.019324652579996358
0.0464999999999999,0.0407314524054527,0.0006103515625,0.018724133714643345
0.047,0.0407190285623073,0.0006103515625,0.018049792695034875
0.0474999999999999,0.040707167237997,0.0006103515625,0.017535910832713882
0.048,0.0406949035823345,0.0006103515625,0.016915531282830274
0.0484999999999999,0.0406826063990592,0.00091552734375,0.016297255302100588
0.049,0.0406704470515251,0.0006103515625,0.0157241323677093
0.0494999999999999,0.0406580753624439,0.00030517578125,0.015106359668490091
0.05,0.0406460464000701,0.0,0.01458316667114683
0.0504999999999999,0.0406336300075054,0.00091552734375,0.01397293566310692
0.051,0.0406211242079734,0.00091552734375,0.013356822023376937
0.0514999999999999,0.04060909897089,0.0006103515625,0.012863835616650549
0.052,0.0405971333384513,0.00030517578125,0.012386657445687623
0.0524999999999999,0.0405845753848552,0.00091552734375,0.011784555648149862
0.053,0.0405720844864845,0.00091552734375,0.01121434911199618
0.0534999999999999,0.0405600778758525,0.00030517578125,0.010758229360917271
0.054,0.0405478179454803,0.0006103515625,0.010254249378622201
0.0544999999999999,0.0405358634889125,0.00030517578125,0.009819822295739793
0.055,0.0405235029757022,0.00091552734375,0.009310390769248996
0.0554999999999999,0.0405112355947494,0.00091552734375,0.008830904334031242
0.056,0.0404989384114742,0.0006103515625,0.008356276401598728
0.0564999999999999,0.0404867902398109,0.00091552734375,0.007918934926790421
0.057,0.0404744334518909,0.0,0.007453571089003917
0.0574999999999999,0.0404621884226799,0.00030517578125,0.007019266552929331
0.058,0.0404496677219867,0.0006103515625,0.006550417854953305
0.0584999999999999,0.0404374748468399,0.00030517578125,0.0061482863067636616
0.059,0.0404249615967273,0.00030517578125,0.005706717951099575
0.0595,0.0404131188988685,0.0006103515625,0.005378173876984148
0.06,0.0404008440673351,0.0006103515625,0.004991839266216795
0.0605,0.0403886325657367,0.00091552734375,0.004625599452966346
0.061,0.0403763353824615,0.00030517578125,0.004258697541324779
0.0615,0.0403642021119594,0.00091552734375,0.003924634878218319
0.062,0.0403519421815872,0.0006103515625,0.003585185614707309
0.0625,0.0403399914503097,0.00030517578125,0.003293650887561229
0.0629999999999999,0.0403272658586502,0.00030517578125,0.002925078076385982
0.0635,0.0403156802058219,0.00030517578125,0.0026949677516841905
0.0639999999999999,0.040303248912096,0.0006103515625,0.002384816767795872
0.0645,0.0402910150587558,0.0006103515625,0.00210945154841261
0.0649999999999999,0.0402787886559963,0.00091552734375,0.0018485864337322547
0.0655,0.0402668230235576,0.0006103515625,0.001623146404650242
0.0659999999999999,0.040254209190607,0.00030517578125,0.0013600625447514393
0.0665,0.0402422472834587,0.00030517578125,0.0011626794623902392
0.0669999999999999,0.0402300991117954,0.00030517578125,0.0009658729914978321
0.0675,0.0402179732918739,0.00091552734375,0.0007859211480707236
0.0679999999999999,0.0402056463062763,0.00030517578125,0.0006118394836049189
0.0685,0.0401932224631309,-0.00030517578125,0.0004531777859448189
0.0689999999999999,0.0401813834905624,0.00030517578125,0.00033798407229209803
0.0695,0.0401689112186431,0.00030517578125,0.00021824442221125484
0.0699999999999999,0.0401567742228508,0.00030517578125,0.00013099194097762008
0.0705,0.040144607424736,0.0006103515625,6.434144980925339e-05
0.0709999999999999,0.0401323176920414,0.0006103515625,1.9383500496291656e-05
0.0715,0.0401202291250228,0.0006103515625,8.408258946936426e-07
0.0719999999999999,0.0401079468429088,0.00091552734375,0.0
0.0725,0.0400955379009246,0.001220703125,0.0
0.0729999999999999,0.0400833673775196,0.0006103515625,0.0
0.0735,0.0400711223483085,0.00030517578125,0.0
0.0739999999999999,0.0400588288903236,0.00030517578125,0.0
0.0745,0.0400467552244663,0.00030517578125,0.0
0.0749999999999999,0.0400344841182231,0.0006103515625,0.0
0.0755,0.0400226227939128,0.0006103515625,0.0
0.0759999999999999,0.0400098077952861,0.0006103515625,0.0
0.0765,0.039997860789299,0.0,0.0
0.0769999999999999,0.0399858579039573,0.0006103515625,0.0
0.0775,0.0399736426770687,0.00030517578125,0.0
0.0779999999999999,0.0399612337350845,0.00030517578125,0.0
0.0785,0.0399489514529705,0.0006103515625,0.0
0.0789999999999999,0.039936888962984,0.00030517578125,0.0
0.0795,0.0399247333407402,0.0006103515625,0.0
0.0799999999999999,0.0399126186966896,0.0006103515625,0.0
0.0805,0.0399005226790905,0.0006103515625,0.0
0.0809999999999999,0.0398881360888481,0.0006103515625,0.0
0.0815,0.0398757718503475,0.0006103515625,0.0
0.0819999999999999,0.0398636162281036,0.00030517578125,0.0
0.0825,0.0398514159023761,0.0006103515625,0.0
0.0829999999999999,0.0398391149938106,0.0006103515625,0.0
0.0835,0.0398270115256309,0.0006103515625,0.0
0.0839999999999999,0.0398147366940975,0.0006103515625,0.0
0.0845,0.0398025959730148,0.0006103515625,0.0
0.0849999999999999,0.0397904217243194,0.00030517578125,0.0
0.0855,0.0397779904305934,0.0006103515625,0.0
0.0859999999999999,0.039766076952219,0.0006103515625,0.0
0.0865,0.0397533774375915,0.0006103515625,0.0
0.0869999999999999,0.0397413820028305,0.00030517578125,0.0
0.0875,0.0397289842367172,0.0006103515625,0.0
0.0879999999999999,0.0397166721522808,0.0006103515625,0.0
0.0885,0.0397046841681003,0.00030517578125,0.0
0.0889999999999999,0.0396926924586296,0.0006103515625,0.0
0.0895,0.0396799966692924,0.001220703125,0.0
0.0899999999999999,0.0396678894758224,0.00030517578125,0.0
0.0905,0.0396554432809352,0.00030517578125,0.0
0.0909999999999999,0.0396432913839817,0.0,0.0
0.0915,0.0396311692893505,0.0006103515625,0.0
0.0919999999999999,0.0396189056336879,0.0,0.0
0.0925,0.0396068915724754,0.00091552734375,0.0
0.0929999999999999,0.0395946204662323,0.0006103515625,0.0
0.0935,0.0395822487771511,0.0006103515625,0.0
0.0939999999999999,0.039570178836584,0.00030517578125,0.0
0.0945,0.0395578928291797,0.0,0.0
0.0949999999999999,0.0395456440746784,0.0,0.0
0.0955,0.0395334623754024,0.0,0.0
0.0959999999999999,0.039521437138319,0.0006103515625,0.0
0.0965,0.0395089201629161,0.00091552734375,0.0
0.0969999999999999,0.0394968912005424,0.00030517578125,0.0
0.0975,0.0394847132265567,0.0006103515625,0.0
0.0979999999999999,0.0394725613296031,0.00030517578125,0.0
0.0985,0.0394604764878749,-0.00030517578125,0.0
0.0989999999999999,0.0394481159746646,0.00091552734375,0.0
0.0995,0.0394359230995178,0.0006103515625,0.0
0.0999999999999999,0.0394237004220485,0.00030517578125,0.0
0.1005,0.039411287754774,0.0006103515625,0.0
0.1009999999999999,0.0393993109464645,0.00091552734375,0.0
0.1015,0.0393870398402214,0.00030517578125,0.0
0.1019999999999999,0.0393747612833976,0.00030517578125,0.0
0.1025,0.0393626280128955,0.00030517578125,0.0
0.1029999999999999,0.0393504872918129,-0.00030517578125,0.0
0.1035,0.0393379367887973,0.0006103515625,0.0
0.1039999999999999,0.0393257513642311,0.0,0.0
0.1045,0.0393134579062461,0.00091552734375,0.0
0.1049999999999999,0.0393015146255493,0.00030517578125,0.0
0.1055,0.0392889156937599,0.0,0.0
0.1059999999999999,0.039276860654354,0.0006103515625,0.0
0.1065,0.0392649210989475,0.00030517578125,0.0
0.1069999999999999,0.0392525419592857,0.0,0.0
0.1075,0.0392402000725269,0.00091552734375,0.0
0.1079999999999999,0.0392279922962188,0.0006103515625,0.0
0.1085,0.0392155013978481,0.0006103515625,0.0
0.1089999999999999,0.0392034724354743,0.0006103515625,0.0
0.1095,0.0391912870109081,0.00030517578125,0.0
0.1099999999999999,0.0391789898276329,0.00030517578125,0.0
0.1105,0.0391669645905494,0.00030517578125,0.0
0.1109999999999999,0.039154764264822,0.00091552734375,0.0
0.1115,0.039142407476902,0.00030517578125,0.0
0.1119999999999999,0.0391303114593029,0.0,0.0
0.1125,0.0391178205609321,0.0006103515625,0.0
0.1129999999999999,0.039105899631977,0.0,0.0
0.1135,0.0390935279428958,0.0006103515625,0.0
0.1139999999999999,0.0390812791883945,0.0006103515625,0.0
0.1145,0.0390690043568611,0.00030517578125,0.0
0.1149999999999999,0.039057083427906,0.0006103515625,0.0
0.1155,0.0390445105731487,0.0,0.0
0.1159999999999999,0.0390325412154197,0.00030517578125,0.0
0.1165,0.0390201583504676,0.0006103515625,0.0
0.1169999999999999,0.0390078835189342,0.0006103515625,0.0
0.1175,0.0389958396553993,0.0006103515625,0.0
0.118,0.0389834493398666,0.00030517578125,0.0
0.1185,0.0389713607728481,0.00030517578125,0.0
0.119,0.0389589481055736,0.00091552734375,0.0
0.1195,0.0389466881752014,0.0,0.0
0.12,0.0389346331357955,0.0006103515625,0.0
0.1205,0.0389224141836166,0.0006103515625,0.0
0.121,0.038910262286663,0.00091552734375,0.0
0.1215,0.0388980321586132,0.0006103515625,0.0
0.122,0.0388853475451469,0.0006103515625,0.0
0.1225,0.038873303681612,0.00030517578125,0.0
0.123,0.0388609915971756,0.00091552734375,0.0
0.1235,0.0388487726449966,0.00091552734375,0.0
0.124,0.0388363599777221,0.0,0.0
0.1245,0.0388245619833469,0.0006103515625,0.0
0.125,0.0388121306896209,0.00030517578125,0.0
0.1254999999999999,0.0388002730906009,0.00030517578125,0.0
0.126,0.0387877635657787,0.0006103515625,0.0
0.1264999999999999,0.0387755967676639,0.0006103515625,0.0
0.127,0.0387633219361305,0.0,0.0
0.1274999999999999,0.0387511700391769,0.0006103515625,0.0
0.128,0.0387390777468681,0.00091552734375,0.0
0.1284999999999999,0.0387268289923667,0.0006103515625,0.0
0.129,0.0387145839631557,0.0006103515625,0.0
0.1294999999999999,0.038702443242073,0.00030517578125,0.0
0.13,0.0386901348829269,0.00030517578125,0.0
0.1304999999999999,0.0386781357228755,0.00030517578125,0.0
0.131,0.0386657305061817,0.00030517578125,0.0
0.1314999999999999,0.0386533960700035,0.0006103515625,0.0
0.132,0.0386413410305976,0.0006103515625,0.0
0.1324999999999999,0.0386293902993202,0.00091552734375,0.0
0.133,0.038617119193077,0.0006103515625,0.0
0.1334999999999999,0.0386051461100578,0.00030517578125,0.0
0.134,0.0385926514863967,0.0,0.0
0.1344999999999999,0.0385804995894432,0.0006103515625,0.0
0.135,0.0385682061314582,0.00030517578125,0.0
0.1354999999999999,0.0385560020804405,0.0006103515625,0.0
0.136,0.0385437943041324,0.00030517578125,0.0
0.1364999999999999,0.0385317206382751,0.0006103515625,0.0
0.137,0.0385191775858402,0.001220703125,0.0
0.1374999999999999,0.038506880402565,0.0006103515625,0.0
0.138,0.0384948141872882,0.0006103515625,0.0
0.1384999999999999,0.0384826362133026,0.00030517578125,0.0
0.139,0.0384702794253826,0.00091552734375,0.0
0.1394999999999999,0.0384580641984939,0.00030517578125,0.0
0.14,0.0384459272027015,0.00091552734375,0.0
0.1404999999999999,0.0384337268769741,0.00030517578125,0.0
0.141,0.038421344012022,-0.00030517578125,0.0
0.1414999999999999,0.038409374654293,0.00091552734375,0.0
0.142,0.0383969545364379,0.00030517578125,0.0
0.1424999999999999,0.0383848622441291,0.0006103515625,0.0
0.143,0.0383725352585315,0.0,0.0
0.1434999999999999,0.0383605808019638,0.00030517578125,0.0
0.144,0.0383481234312057,0.0006103515625,0.0
0.1444999999999999,0.0383358784019947,0.0006103515625,0.0
0.145,0.0383236818015575,0.0,0.0
0.1454999999999999,0.0383114255964756,0.0006103515625,0.0
0.146,0.0382991656661033,0.00030517578125,0.0
0.1464999999999999,0.038286954164505,0.00030517578125,0.0
0.147,0.0382749736309051,0.00030517578125,0.0
0.1474999999999999,0.0382623337209224,0.00030517578125,0.0
0.148,0.0382503941655159,0.00030517578125,0.0
0.1484999999999999,0.0382383354008197,0.0,0.0
0.149,0.0382257923483848,0.00030517578125,0.0
0.1494999999999999,0.0382135733962059,0.00030517578125,0.0
0.15,0.0382016599178314,0.0006103515625,0.0
0.1504999999999999,0.0381894148886203,0.00030517578125,0.0
0.151,0.0381769351661205,0.0,0.0
0.1514999999999999,0.0381649173796176,0.0006103515625,0.0
0.152,0.0381525568664073,0.0006103515625,0.0
0.1524999999999999,0.0381401777267456,0.00030517578125,0.0
0.153,0.0381281375885009,0.00030517578125,0.0
0.1534999999999999,0.0381156839430332,0.00030517578125,0.0
0.154,0.0381034575402736,0.00030517578125,0.0
0.1544999999999999,0.0380911342799663,0.0,0.0
0.155,0.0380792468786239,0.0006103515625,0.0
0.1554999999999999,0.0380666553974151,0.0006103515625,0.0
0.156,0.0380544103682041,0.0006103515625,0.0
0.1564999999999999,0.038042165338993,0.0006103515625,0.0
0.157,0.0380302146077156,0.0006103515625,0.0
0.1574999999999999,0.0380177795886993,0.0006103515625,0.0
0.158,0.0380056425929069,0.0006103515625,0.0
0.1584999999999999,0.0379934906959533,0.0006103515625,0.0
0.159,0.0379812903702259,0.0006103515625,0.0
0.1594999999999999,0.0379690043628215,0.00030517578125,0.0
0.16,0.037956990301609,0.0,0.0
0.1604999999999999,0.037944808602333,0.0006103515625,0.0
0.161,0.0379324294626712,0.0006103515625,0.0
0.1614999999999999,0.0379203334450721,0.00030517578125,0.0
0.162,0.0379084646701812,0.00030517578125,0.0
0.1624999999999999,0.0378958098590374,0.0,0.0
0.163,0.0378837995231151,0.00030517578125,0.0
0.1634999999999999,0.0378714241087436,0.00030517578125,0.0
0.164,0.0378591455519199,0.00091552734375,0.0
0.1644999999999999,0.0378467217087745,0.0,0.0
0.165,0.0378349348902702,0.0006103515625,0.0
0.1654999999999999,0.0378226786851882,0.001220703125,0.0
0.166,0.0378103516995906,0.00030517578125,0.0
0.1664999999999999,0.0377977304160594,0.0006103515625,0.0
0.167,0.0377858728170394,0.00091552734375,0.0
0.1674999999999999,0.037773847579956,0.00030517578125,0.0
0.168,0.037761315703392,0.0006103515625,0.0
0.1684999999999999,0.0377492681145668,0.0006103515625,0.0
0.169,0.0377372056245803,0.00030517578125,0.0
0.1694999999999999,0.0377244986593723,0.00030517578125,0.0
0.17,0.0377123728394508,0.00030517578125,0.0
0.1704999999999999,0.0377003848552703,0.0006103515625,0.0
0.171,0.0376880764961242,0.0006103515625,0.0
0.1714999999999999,0.0376758798956871,-0.00030517578125,0.0
0.172,0.0376632511615753,0.0006103515625,0.0
0.1725,0.0376512706279754,0.00030517578125,0.0
0.173,0.0376391038298606,0.00091552734375,0.0
0.1735,0.0376267619431018,0.0006103515625,0.0
0.174,0.0376147665083408,0.00030517578125,0.0
0.1745,0.0376023799180984,0.00091552734375,0.0
0.175,0.0375901833176612,0.0006103515625,0.0
