time [s],Lmtc [m],STIM [ ],Fsee [N]
0.0,0.0435487776994705,0.0006103515625,0.41233376811466266
0.0004999999999999,0.0435489453375339,0.0006103515625,0.4125502387112403
0.001,0.0435484610497951,0.0006103515625,0.4119209883826639
0.0014999999999999,0.0435487851500511,0.0006103515625,0.41236306535247125
0.002,0.0435485802590847,0.0006103515625,0.412100494176025
0.0024999999999999,0.0435487851500511,0.0006103515625,0.4123778772616844
0.003,0.0435485765337944,0.0,0.412109449719603
0.0034999999999999,0.0435487516224384,0.0006103515625,0.4123478147836214
0.004,0.0435487367212772,0.0006103515625,0.4123276267298478
0.0044999999999999,0.0435486249625682,-0.0006103515625,0.41218538298768354
0.005,0.0435486733913421,0.00030517578125,0.412257029989141
0.0054999999999999,0.0435486324131488,0.00091552734375,0.4122102042928157
0.006,0.0435484908521175,0.00030517578125,0.412038933336587
0.0064999999999999,0.0435485541820526,0.0,0.4121402314083164
0.007,0.0435484088957309,0.00030517578125,0.41196888739525894
0.0074999999999999,0.0435479506850242,0.00091552734375,0.4114172944723782
0.008,0.0435463674366474,0.0006103515625,0.40948249888969673
0.0084999999999999,0.0435435734689235,0.00030517578125,0.4061911402226442
0.009,0.0435383282601833,0.00030517578125,0.40013811076625216
0.0094999999999999,0.0435317046940326,0.00091552734375,0.39304637374225526
0.01,0.0435222052037715,0.0006103515625,0.3834182609481502
0.0104999999999999,0.0435102805495262,0.00030517578125,0.37263745703854007
0.011,0.0434964187443256,0.0006103515625,0.3622943871672119
0.0114999999999999,0.043480385094881,0.0006103515625,0.3531569168064219
0.012,0.0434628687798976,0.0006103515625,0.3463486387504995
0.0124999999999999,0.0434440597891807,0.00030517578125,0.34104599838193933
0.013,0.0434240624308586,0.0006103515625,0.3362767572643493
0.0134999999999999,0.0434033945202827,0.0006103515625,0.3318853111056927
0.014,0.0433823391795158,0.00091552734375,0.327670469039119
0.0144999999999999,0.0433610938489437,0.0006103515625,0.3235704369740074
0.015,0.0433395318686962,0.00030517578125,0.31939290300774525
0.0154999999999999,0.0433180704712867,0.00030517578125,0.31543362031902944
0.016,0.0432969480752944,0.00030517578125,0.3117008537427591
0.0164999999999999,0.0432759262621402,0.00030517578125,0.30792259097704366
0.017,0.0432551279664039,0.00030517578125,0.30424266860041355
0.0174999999999999,0.0432346239686012,0.00091552734375,0.3007043784643852
0.018,0.0432136543095111,0.0,0.2967119893446623
0.0184999999999999,0.0431934110820293,0.00030517578125,0.29343497442956373
0.019,0.0431732237339019,0.0006103515625,0.28994443605359227
0.0194999999999999,0.0431523248553276,0.0,0.28590898542772325
0.02,0.0431317873299121,0.00030517578125,0.282411874719474
0.0204999999999999,0.0431115105748176,0.0006103515625,0.27902219462251954
0.021,0.0430910065770149,0.0006103515625,0.2753872319543305
0.0214999999999999,0.0430702269077301,0.0006103515625,0.2716530587422953
0.022,0.0430500954389572,0.00030517578125,0.2684872475607907
0.0224999999999999,0.0430294275283813,0.00030517578125,0.2647519070918041
0.023,0.0430091507732868,0.0,0.261461589696667
0.0234999999999999,0.0429887287318706,0.0006103515625,0.2579880920058305
0.024,0.0429683625698089,0.001220703125,0.2546016857886962
0.0244999999999999,0.042947731912136,0.00030517578125,0.2510494189394057
0.025,0.0429276414215564,0.00030517578125,0.24796339508652143
0.0254999999999999,0.0429069139063358,0.0,0.24431470638284963
0.026,0.0428862757980823,0.00030517578125,0.24092890273902168
0.0264999999999999,0.0428658500313758,0.0006103515625,0.23770831307315307
0.027,0.042845468968153,0.0006103515625,0.23447071074042278
0.0274999999999999,0.0428248979151248,0.0006103515625,0.23110398008170488
0.028,0.042804192751646,0.00030517578125,0.2277215462250075
0.0284999999999999,0.0427837148308754,0.0006103515625,0.22457036934317656
0.029,0.0427633225917816,0.0006103515625,0.22143366851358035
0.0294999999999999,0.0427429229021072,0.0,0.21826823625525169
0.03,0.0427224524319171,0.0,0.2150687767568416
0.0304999999999999,0.0427019819617271,0.00030517578125,0.21191388741914524
0.031,0.042681410908699,0.00030517578125,0.2087100938112289
0.0314999999999999,0.0426612012088298,0.0006103515625,0.20580632453336417
0.032,0.0426407605409622,0.00091552734375,0.20266916247870284
0.0324999999999999,0.0426202192902565,0.0,0.19952177940384036
0.033,0.0426000468432903,0.0006103515625,0.19668333919173472
0.0334999999999999,0.0425795093178749,0.0006103515625,0.1935254895284363
0.034,0.0425589829683303,0.0006103515625,0.19047917008483614
0.0344999999999999,0.0425386279821395,0.00030517578125,0.18758700643262505
0.035,0.0425182841718196,0.00091552734375,0.1846737243989741
0.0354999999999999,0.0424979589879512,0.0,0.18177843793178636
0.036,0.0424774251878261,0.0,0.17875865071231972
0.0364999999999999,0.0424571335315704,-0.00030517578125,0.17597600242542774
0.037,0.0424365922808647,0.0006103515625,0.17300206381428507
0.0374999999999999,0.042416263371706,0.0006103515625,0.17024304279895272
0.038,0.0423955917358398,0.00030517578125,0.16725078379508637
0.0384999999999999,0.0423751026391983,0.0006103515625,0.16447668971958165
0.039,0.0423546135425567,0.00030517578125,0.16168819597829226
0.0394999999999999,0.0423345379531383,0.00030517578125,0.15917280986598825
0.04,0.0423138998448848,0.00030517578125,0.15621656980673343
0.0404999999999999,0.0422937236726284,0.0006103515625,0.15367674859004127
0.041,0.0422731712460517,0.0006103515625,0.15084971854201112
0.0414999999999999,0.0422526784241199,0.00091552734375,0.14814838947263503
0.042,0.0422323122620582,0.0006103515625,0.14555211420494252
0.0424999999999999,0.0422117710113525,0.00030517578125,0.14284458654980028
0.043,0.042191281914711,0.00030517578125,0.14022161815294423
0.0434999999999999,0.0421709716320037,0.00030517578125,0.13772383951980482
0.044,0.0421505905687809,0.00091552734375,0.1351588748791783
0.0444999999999999,0.0421303063631057,0.0006103515625,0.1326709577770426
0.045,0.0421098470687866,0.00030517578125,0.13008394289534872
0.0454999999999999,0.042089357972145,0.00030517578125,0.12753478816691968
0.046,0.0420687943696975,0.00091552734375,0.12499170790437653
0.0464999999999999,0.0420479923486709,-0.00030517578125,0.12236209822309149
0.047,0.0420278050005435,0.00030517578125,0.12014956937289693
0.0474999999999999,0.0420075356960296,0.00030517578125,0.11780038603756865
0.048,0.0419869199395179,0.0006103515625,0.11525820407725881
0.0484999999999999,0.0419666543602943,0.0006103515625,0.11299309789153623
0.049,0.0419459640979766,-0.00030517578125,0.11047080385433034
0.0494999999999999,0.0419257469475269,0.00030517578125,0.10829384311464602
0.05,0.0419051870703697,0.00030517578125,0.10588703376468687
0.0504999999999999,0.0418848022818565,0.0,0.10363433393016624
0.051,0.0418643988668918,0.00030517578125,0.10137137837511127
0.0514999999999999,0.041844218969345,0.0006103515625,0.09924087598554068
0.052,0.0418238826096057,0.00091552734375,0.09700398748775668
0.0524999999999999,0.0418036766350269,0.00030517578125,0.09486399144468478
0.053,0.04178312048316,0.0,0.09255060507160222
0.0534999999999999,0.0417627654969692,0.0006103515625,0.09041573150309112
0.054,0.0417423769831657,0.0006103515625,0.08827731098152371
0.0544999999999999,0.0417217090725898,-0.00030517578125,0.0860235097778471
0.055,0.0417017601430416,0.00030517578125,0.08418901225678556
0.0554999999999999,0.0416810102760791,-0.00030517578125,0.08188873996458136
0.056,0.0416606962680816,0.0006103515625,0.07990859559026829
0.0564999999999999,0.0416399389505386,-0.00030517578125,0.07771153126538523
0.057,0.041619699448347,0.0006103515625,0.07583318543441506
0.0574999999999999,0.0415992923080921,0.0006103515625,0.07384454476066235
0.058,0.041578933596611,0.0006103515625,0.07190070227905324
0.0584999999999999,0.0415583252906799,0.0006103515625,0.06985739718191443
0.059,0.0415379740297794,0.00030517578125,0.06798276274235489
0.0595,0.0415176078677177,0.0006103515625,0.06610234350547185
0.06,0.041497379541397,0.00030517578125,0.06429471174125788
0.0605,0.0414769388735294,0.00091552734375,0.06239235513753193
0.061,0.0414565466344356,0.0006103515625,0.06054976593255191
0.0615,0.0414360463619232,0.0,0.05868625167505652
0.062,0.0414155311882495,0.0006103515625,0.05685197738498577
0.0625,0.0413954965770244,0.0,0.05524759859873695
0.0629999999999999,0.0413750074803829,0.00030517578125,0.05342950880534546
0.0635,0.0413543060421943,0.0006103515625,0.05157357608940164
0.0639999999999999,0.0413339920341968,0.00030517578125,0.04993179625022556
0.0645,0.0413133203983306,0.0006103515625,0.04815158799916235
0.0649999999999999,0.0412928089499473,0.00091552734375,0.04648270320873008
0.0655,0.0412723906338214,0.0006103515625,0.044869580829384643
0.0659999999999999,0.0412522628903389,0.00091552734375,0.04337651025748752
0.0665,0.0412313789129257,0.0006103515625,0.04159238795010347
0.0669999999999999,0.041211262345314,0.00030517578125,0.04015926693324217
0.0675,0.0411908030509948,0.00030517578125,0.03858529338161913
0.0679999999999999,0.041170097887516,0.00030517578125,0.03695700895544263
0.0685,0.0411496981978416,0.0006103515625,0.035482687332733784
0.0689999999999999,0.041129644960165,0.0006103515625,0.03413548797710248
0.0695,0.041109099984169,-0.00030517578125,0.03261235389604642
0.0699999999999999,0.041088730096817,0.0006103515625,0.031186339495375942
0.0705,0.0410684645175933,0.00030517578125,0.029813867313546155
0.0709999999999999,0.0410478413105011,0.00030517578125,0.028344350974934398
0.0715,0.0410276837646961,0.00030517578125,0.027060017542573932
0.0719999999999999,0.0410073176026344,0.00030517578125,0.025717625764896987
0.0725,0.040986780077219,0.0,0.0243507187535974
0.0729999999999999,0.0409664660692215,0.0006103515625,0.023083374505211803
0.0735,0.040946003049612,0.0006103515625,0.021793359868329414
0.0739999999999999,0.0409256070852279,0.00030517578125,0.02055145739049108
0.0745,0.0409051328897476,0.00091552734375,0.01931408259834728
0.0749999999999999,0.0408844612538814,0.0006103515625,0.018056478847574043
0.0755,0.0408643260598182,0.0006103515625,0.01697069592966628
0.0759999999999999,0.0408436954021453,0.00091552734375,0.015774820490583506
0.0765,0.0408235602080822,0.0006103515625,0.014731965591010478
0.0769999999999999,0.0408029146492481,0.0,0.013588167083263636
0.0775,0.0407824292778968,0.0006103515625,0.012519582623658187
0.0779999999999999,0.0407618805766105,0.00030517578125,0.0114689865657387
0.0785,0.0407415553927421,0.00091552734375,0.010496585931995978
0.0789999999999999,0.0407211706042289,0.0006103515625,0.009537678007984982
0.0795,0.0407010428607463,0.0006103515625,0.008654786218139116
0.0799999999999999,0.0406804010272026,0.0006103515625,0.007706107255376018
0.0805,0.0406602993607521,0.0006103515625,0.006888817090057919
0.0809999999999999,0.0406396090984344,0.0006103515625,0.006007682529608905
0.0815,0.0406191349029541,0.00030517578125,0.005205903233190183
0.0819999999999999,0.0405988618731498,0.00030517578125,0.004472616986997437
0.0825,0.0405783914029598,0.00030517578125,0.003753693883603951
0.0829999999999999,0.0405578091740608,0.0,0.003070336386649851
0.0835,0.0405373647809028,0.00030517578125,0.0024548906541656196
0.0839999999999999,0.0405170768499374,0.0006103515625,0.0019070847384383956
0.0845,0.0404964908957481,0.0006103515625,0.0013914421476609352
0.0849999999999999,0.0404759980738163,0.00030517578125,0.0009505254759621419
0.0855,0.0404551699757576,0.00091552734375,0.0005662731315257353
0.0859999999999999,0.0404346920549869,0.0006103515625,0.0002847855845875568
0.0865,0.0404145792126655,0.0006103515625,0.00010097918457717853
0.0869999999999999,0.0403940044343471,0.00091552734375,5.961865128021721e-06
0.0875,0.0403738543391227,0.00091552734375,0.0
0.0879999999999999,0.0403529778122901,0.0006103515625,0.0
0.0885,0.0403329245746135,0.0006103515625,0.0
0.0889999999999999,0.0403128303587436,0.00030517578125,0.0
0.0895,0.0402923934161663,0.00091552734375,0.0
0.0899999999999999,0.0402717664837837,0.00091552734375,0.0
0.0905,0.0402514860033988,0.00091552734375,0.0
0.0909999999999999,0.0402311421930789,0.0006103515625,0.0
0.0915,0.0402107536792755,0.00091552734375,0.0
0.0919999999999999,0.0401902943849563,0.00030517578125,0.0
0.0925,0.0401700399816036,0.00030517578125,0.0
0.0929999999999999,0.0401498302817344,0.0006103515625,0.0
0.0935,0.0401291623711586,0.00030517578125,0.0
0.0939999999999999,0.0401087999343872,0.0,0.0
0.0945,0.0400884635746479,0.00030517578125,0.0
0.0949999999999999,0.0400679819285869,0.0006103515625,0.0
0.0955,0.0400474704802036,0.0006103515625,0.0
0.0959999999999999,0.0400271788239479,0.00030517578125,0.0
0.0965,0.0400065816938877,0.0006103515625,0.0
0.0969999999999999,0.0399864763021469,0.00091552734375,0.0
0.0975,0.0399659872055053,0.001220703125,0.0
0.0979999999999999,0.0399456359446048,0.00030517578125,0.0
0.0985,0.0399251021444797,0.0006103515625,0.0
0.0989999999999999,0.0399050004780292,0.00091552734375,0.0
0.0995,0.0398844145238399,0.00091552734375,0.0
0.0999999999999999,0.0398640483617782,0.00091552734375,0.0
0.1005,0.0398435331881046,0.0006103515625,0.0
0.1009999999999999,0.0398231148719787,0.0006103515625,0.0
0.1015,0.0398024544119834,0.00030517578125,0.0
0.1019999999999999,0.0397824458777904,0.0,0.0
0.1025,0.0397619642317295,0.0006103515625,0.0
0.1029999999999999,0.0397414974868297,0.00030517578125,0.0
0.1035,0.0397210419178009,0.00030517578125,0.0
0.1039999999999999,0.0397004559636116,0.0006103515625,0.0
0.1045,0.039680115878582,0.00030517578125,0.0
0.1049999999999999,0.03965974599123,-0.00030517578125,0.0
0.1055,0.0396390259265899,0.0006103515625,0.0
0.1059999999999999,0.0396190732717514,0.00030517578125,0.0
0.1065,0.0395982973277568,0.00030517578125,0.0
0.1069999999999999,0.0395777225494384,0.0006103515625,0.0
0.1075,0.0395576059818267,0.00030517578125,0.0
0.1079999999999999,0.0395370870828628,0.0006103515625,0.0
0.1085,0.0395163148641586,0.0006103515625,0.0
0.1089999999999999,0.0394962728023529,0.0006103515625,0.0
0.1095,0.0394760817289352,0.00030517578125,0.0
0.1099999999999999,0.039455659687519,0.00030517578125,0.0
0.1105,0.0394349098205566,0.0,0.0
0.1109999999999999,0.0394148789346218,0.0006103515625,0.0
0.1115,0.0393946394324302,0.00030517578125,0.0
0.1119999999999999,0.0393739975988864,0.0006103515625,0.0
0.1125,0.0393537953495979,0.00091552734375,0.0
0.1129999999999999,0.0393331423401832,0.001220703125,0.0
0.1135,0.0393125377595424,0.0006103515625,0.0
0.1139999999999999,0.0392924398183822,0.00030517578125,0.0
0.1145,0.0392718836665153,0.00030517578125,0.0
0.1149999999999999,0.0392515361309051,0.0,0.0
0.1155,0.0392310954630374,0.00091552734375,0.0
0.1159999999999999,0.0392105020582675,0.0006103515625,0.0
0.1165,0.0391900688409805,0.0006103515625,0.0
0.1169999999999999,0.0391695909202098,0.00030517578125,0.0
0.1175,0.0391494706273078,0.0006103515625,0.0
0.118,0.0391290485858917,0.0,0.0
0.1185,0.0391084477305412,0.0,0.0
0.119,0.0390881150960922,0.0006103515625,0.0
0.1195,0.0390679351985454,0.0006103515625,0.0
0.12,0.0390473306179046,0.0006103515625,0.0
0.1205,0.0390270464122295,0.0,0.0
0.121,0.0390066429972648,-0.00030517578125,0.0
0.1215,0.0389859229326248,0.00030517578125,0.0
0.122,0.0389652960002422,0.0006103515625,0.0
0.1225,0.0389449037611484,0.0006103515625,0.0
0.123,0.0389247350394725,0.0006103515625,0.0
0.1235,0.0389040596783161,0.0006103515625,0.0
0.124,0.0388835445046424,0.00030517578125,0.0
0.1245,0.0388635359704494,0.00030517578125,0.0
0.125,0.0388428121805191,0.00091552734375,0.0
0.1254999999999999,0.0388225056231021,0.00030517578125,0.0
0.126,0.038801684975624,0.0006103515625,0.0
0.1264999999999999,0.0387817732989788,0.0,0.0
0.127,0.0387612953782081,0.0006103515625,0.0
0.1274999999999999,0.0387412756681442,0.0006103515625,0.0
0.128,0.0387207046151161,0.00030517578125,0.0
0.1284999999999999,0.0387001782655715,0.00030517578125,0.0
0.129,0.0386796034872531,0.00030517578125,0.0
0.1294999999999999,0.0386595502495765,0.00091552734375,0.0
0.13,0.0386390164494514,0.00030517578125,0.0
0.1304999999999999,0.0386184975504875,0.0006103515625,0.0
0.131,0.0385983772575855,0.0006103515625,0.0
0.1314999999999999,0.0385777503252029,0.0,0.0
0.132,0.0385577678680419,0.0006103515625,0.0
0.1324999999999999,0.0385370776057243,0.00030517578125,0.0
0.133,0.038516741245985,0.0006103515625,0.0
0.1334999999999999,0.0384962484240531,0.00030517578125,0.0
0.134,0.0384756103157997,0.00091552734375,0.0
0.1344999999999999,0.0384554825723171,0.0006103515625,0.0
0.135,0.0384350083768367,0.0006103515625,0.0
0.1354999999999999,0.0384145379066467,0.0006103515625,0.0
0.136,0.0383940674364566,0.00091552734375,0.0
0.1364999999999999,0.0383736342191696,0.0006103515625,0.0
0.137,0.0383532382547855,0.00030517578125,0.0
0.1374999999999999,0.038333099335432,0.0006103515625,0.0
0.138,0.0383127741515636,0.0006103515625,0.0
0.1384999999999999,0.0382921025156974,0.00091552734375,0.0
0.139,0.0382718481123447,0.0006103515625,0.0
0.1394999999999999,0.0382512547075748,0.00030517578125,0.0
0.14,0.0382309295237064,0.00091552734375,0.0
0.1404999999999999,0.0382102318108081,0.0006103515625,0.0
0.141,0.0381902530789375,0.00091552734375,0.0
0.1414999999999999,0.0381696373224258,0.00030517578125,0.0
0.142,0.0381490997970104,0.0006103515625,0.0
0.1424999999999999,0.0381285920739173,0.0006103515625,0.0
0.143,0.0381084233522415,0.0006103515625,0.0
0.1434999999999999,0.0380875468254089,0.0006103515625,0.0
0.144,0.0380672104656696,0.0006103515625,0.0
0.1444999999999999,0.0380469337105751,0.00030517578125,0.0
0.145,0.0380263812839984,0.00030517578125,0.0
0.1454999999999999,0.0380057469010353,0.0006103515625,0.0
0.146,0.0379856340587139,0.0006103515625,0.0
0.1464999999999999,0.0379653163254261,0.00091552734375,0.0
0.147,0.0379446372389793,0.00091552734375,0.0
0.1474999999999999,0.0379244498908519,0.0006103515625,0.0
0.148,0.0379039905965328,0.0,0.0
0.1484999999999999,0.0378835722804069,0.0,0.0
0.149,0.0378632694482803,0.00030517578125,0.0
0.1494999999999999,0.0378429144620895,0.0006103515625,0.0
0.15,0.0378224849700927,0.0,0.0
0.1504999999999999,0.0378022193908691,0.00091552734375,0.0
0.151,0.0377819649875164,0.0006103515625,0.0
0.1514999999999999,0.0377611890435218,0.00091552734375,0.0
0.152,0.0377407521009445,0.00091552734375,0.0
0.1524999999999999,0.0377201586961746,0.0,0.0
0.153,0.0376996845006942,0.0006103515625,0.0
0.1534999999999999,0.0376792885363101,0.0006103515625,0.0
0.154,0.0376587957143783,0.0,0.0
0.1544999999999999,0.0376384481787681,0.00030517578125,0.0
0.155,0.0376179553568363,0.0006103515625,0.0
0.1554999999999999,0.0375976487994194,0.0006103515625,0.0
0.156,0.0375773236155509,0.00030517578125,0.0
0.1564999999999999,0.0375568382441997,0.00030517578125,0.0
0.157,0.037536296993494,-0.00030517578125,0.0
0.1574999999999999,0.0375161431729793,0.0006103515625,0.0
0.158,0.0374953337013721,0.0006103515625,0.0
0.1584999999999999,0.0374752804636955,0.0006103515625,0.0
0.159,0.0374546349048614,0.00091552734375,0.0
0.1594999999999999,0.0374343916773796,0.0006103515625,0.0
0.16,0.0374140180647373,0.00030517578125,0.0
0.1604999999999999,0.0373932570219039,0.00030517578125,0.0
0.161,0.0373728200793266,0.0006103515625,0.0
0.1614999999999999,0.037352155894041,0.0006103515625,0.0
0.162,0.0373315960168838,0.00030517578125,0.0
0.1624999999999999,0.0373113118112087,0.00091552734375,0.0
0.163,0.0372911468148231,0.0,0.0
0.1634999999999999,0.0372705087065696,0.0006103515625,0.0
0.164,0.0372502356767654,0.0006103515625,0.0
0.1644999999999999,0.0372299291193485,0.00030517578125,0.0
0.165,0.0372092276811599,0.0006103515625,0.0
0.1654999999999999,0.0371890403330326,0.0,0.0
0.166,0.0371685847640037,0.0006103515625,0.0
0.1664999999999999,0.0371483191847801,0.00030517578125,0.0
0.167,0.0371279194951057,0.0006103515625,0.0
0.1674999999999999,0.0371078252792358,0.00091552734375,0.0
0.168,0.0370871201157569,-0.00030517578125,0.0
0.1684999999999999,0.0370669290423393,0.00030517578125,0.0
0.169,0.0370464175939559,0.0006103515625,0.0
0.1694999999999999,0.0370260626077652,0.00030517578125,0.0
