time [s],Lmtc [m],STIM [ ],Fsee [N]
0.0,0.043548684567213,0.00091552734375,0.4123170044870537
0.0004999999999999,0.0435488857328891,0.00030517578125,0.41257694747714657
0.001,0.043548434972763,0.0,0.4119884369046335
0.0014999999999999,0.0435486957430839,0.0006103515625,0.41234398494343705
0.002,0.0435484983026981,0.0,0.4120911814742549
0.0024999999999999,0.0435488894581794,0.00030517578125,0.4126065611791392
0.003,0.0435483492910862,0.00030517578125,0.4119021099005415
0.0034999999999999,0.0435486882925033,0.0006103515625,0.4123629950601088
0.004,0.0435484834015369,0.00030517578125,0.41209894181745965
0.0044999999999999,0.0435486882925033,0.0006103515625,0.41237503484278415
0.005,0.0435486584901809,0.00030517578125,0.41233385885121904
0.0054999999999999,0.0435487702488899,0.00030517578125,0.41247745013747117
0.006,0.0435485877096653,0.0006103515625,0.4122360772118872
0.0064999999999999,0.043548434972763,0.0006103515625,0.4120482406501073
0.007,0.0435481518507003,0.0006103515625,0.41170851803701375
0.0074999999999999,0.0435472168028354,0.00091552734375,0.41057264586618347
0.008,0.0435452684760093,0.00030517578125,0.4082440937817514
0.0084999999999999,0.0435421206057071,0.0,0.4046106572224003
0.009,0.0435380712151527,0.00030517578125,0.4001850036088181
0.0094999999999999,0.0435327626764774,0.00030517578125,0.3946703146624002
0.01,0.0435266755521297,0.00030517578125,0.388853081970116
0.0104999999999999,0.0435197055339813,0.0,0.3827766394166636
0.011,0.0435122177004814,0.0006103515625,0.377042717891288
0.0114999999999999,0.0435045287013053,0.0006103515625,0.3721020352437847
0.012,0.0434965975582599,0.0,0.3678459443915724
0.0124999999999999,0.0434880964457988,0.0,0.3638404051460006
0.013,0.0434799790382385,0.00030517578125,0.36107208273955277
0.0134999999999999,0.0434715785086154,0.00091552734375,0.35847162014178396
0.014,0.043463259935379,0.0006103515625,0.3563543326586176
0.0144999999999999,0.0434547401964664,0.00030517578125,0.3542565970383647
0.015,0.0434463769197464,-0.00030517578125,0.3525239951224776
0.0154999999999999,0.0434383861720562,0.00030517578125,0.3512371824817476
0.016,0.0434297956526279,0.00030517578125,0.3492636818864052
0.0164999999999999,0.0434211231768131,0.0,0.347356448646195
0.017,0.0434133149683475,0.0006103515625,0.3464385546297699
0.0174999999999999,0.0434048064053058,0.0006103515625,0.3446067473517967
0.018,0.043396707624197,0.00030517578125,0.34329136689054346
0.0184999999999999,0.0433884486556053,0.00030517578125,0.3417391733856072
0.019,0.043380606919527,0.0,0.3406180833417765
0.0194999999999999,0.0433721095323562,0.00030517578125,0.3387178671746241
0.02,0.0433642715215683,0.0006103515625,0.3376128096107501
0.0204999999999999,0.0433564856648445,0.0006103515625,0.3364351319845445
0.021,0.0433481112122535,-0.00030517578125,0.3345773769907459
0.0214999999999999,0.0433399714529514,0.0006103515625,0.33308346716105186
0.022,0.0433318093419075,0.0006103515625,0.33157470212645274
0.0224999999999999,0.0433238074183464,0.0006103515625,0.33023682721253816
0.023,0.0433156266808509,0.0006103515625,0.3286811029727295
0.0234999999999999,0.0433077588677406,0.00030517578125,0.32746342043943455
0.024,0.0432997830212116,0.0006103515625,0.3260645500455221
0.0244999999999999,0.0432915575802326,0.0006103515625,0.324411109645196
0.025,0.0432835109531879,0.00030517578125,0.32300321579493096
0.0254999999999999,0.0432756021618843,-0.00030517578125,0.32172356512536265
0.026,0.0432671606540679,0.0006103515625,0.3198731826344064
0.0264999999999999,0.0432590991258621,0.00030517578125,0.3185200804210941
0.027,0.0432512871921062,0.0006103515625,0.3173827462402018
0.0274999999999999,0.0432431474328041,0.0006103515625,0.3158400956970888
0.028,0.043234933167696,0.00091552734375,0.31426478835910787
0.0284999999999999,0.0432270020246505,0.00030517578125,0.3130104537860286
0.029,0.0432189181447029,0.0006103515625,0.31155674167373454
0.0294999999999999,0.0432108528912067,0.0006103515625,0.3101390186130072
0.03,0.0432025119662284,0.0006103515625,0.308457670456355
0.0304999999999999,0.0431948788464069,0.001220703125,0.307541821318442
0.031,0.0431865155696868,0.00091552734375,0.3057709834426639
0.0314999999999999,0.0431786216795444,0.0006103515625,0.3045642259407509
0.032,0.0431707650423049,0.00030517578125,0.3033358602220633
0.0324999999999999,0.0431623682379722,0.00030517578125,0.3015427918798976
0.033,0.0431546792387962,0.0,0.30055343209402124
0.0334999999999999,0.0431461445987224,0.00091552734375,0.29863661890873094
0.034,0.0431383922696113,0.0006103515625,0.297629589746452
0.0344999999999999,0.0431302711367607,0.0,0.2961579229884432
0.035,0.0431222468614578,0.0006103515625,0.2948089487182629
0.0354999999999999,0.0431140847504138,0.0006103515625,0.2933220213222247
0.036,0.0431061461567878,0.0006103515625,0.2920827695044799
0.0364999999999999,0.0430977754294872,0.00030517578125,0.29039599641004693
0.037,0.0430900081992149,0.00091552734375,0.28937526601975144
0.0374999999999999,0.0430819578468799,0.00030517578125,0.2879892300004595
0.038,0.043073795735836,0.0006103515625,0.2865088181885312
0.0384999999999999,0.0430659018456935,0.0,0.28531699308482794
0.039,0.0430578738451004,0.001220703125,0.283954567593986
0.0394999999999999,0.0430495031177997,0.0006103515625,0.28227650588899766
0.04,0.0430418364703655,0.0006103515625,0.28135478741132197
0.0404999999999999,0.0430336408317089,0.0006103515625,0.27982156409502634
0.041,0.0430256053805351,0.00030517578125,0.27849703259943664
0.0414999999999999,0.0430175736546516,0.0,0.27717168729825076
0.042,0.0430097319185733,0.00030517578125,0.27602324649633514
0.0424999999999999,0.0430017709732055,0.00030517578125,0.2747190011731234
0.043,0.042993675917387,0.00030517578125,0.27328952102115495
0.0434999999999999,0.0429853349924087,0.0006103515625,0.2716689630344359
0.044,0.0429772287607193,0.00030517578125,0.27035096076266846
0.0444999999999999,0.0429692678153514,0.0,0.2691638927417503
0.045,0.0429611541330814,0.0006103515625,0.2678009937121501
0.0454999999999999,0.0429532155394554,0.00030517578125,0.2666142772046039
0.046,0.0429451018571853,0.0,0.26523529804239276
0.0464999999999999,0.0429370068013668,0.0,0.26389678828851737
0.047,0.0429289042949676,-0.00030517578125,0.26256317254674244
0.0474999999999999,0.0429209396243095,0.0,0.2613657130080779
0.048,0.0429127812385559,0.00030517578125,0.2599670322371508
0.0484999999999999,0.0429046750068664,0.00030517578125,0.25864586328160566
0.049,0.0428966507315635,0.0006103515625,0.25740845901363135
0.0494999999999999,0.0428886525332927,0.00030517578125,0.25618238863188547
0.05,0.0428805984556674,0.0006103515625,0.2548926580868909
0.0504999999999999,0.0428726486861705,0.00030517578125,0.2537032226582903
0.051,0.0428644530475139,0.0006103515625,0.2522726472307007
0.0514999999999999,0.0428566075861454,0.0,0.25120281800979033
0.052,0.0428481251001358,0.00030517578125,0.24951264670942386
0.0524999999999999,0.0428401976823806,0.00030517578125,0.2484304518876908
0.053,0.0428318977355957,0.00091552734375,0.2469679789374461
0.0534999999999999,0.0428239852190017,0.00091552734375,0.2459020985220453
0.054,0.0428157821297645,0.0,0.24452789045231954
0.0544999999999999,0.0428077951073646,0.00030517578125,0.24337633207664755
0.055,0.0427997261285781,0.0006103515625,0.2421270656662458
0.0554999999999999,0.042791586369276,0.0006103515625,0.2408164010996162
0.056,0.0427837036550045,0.00030517578125,0.23975041277267378
0.0564999999999999,0.0427753776311874,0.0,0.23825329813898513
0.057,0.0427674129605293,0.0006103515625,0.23714124870707576
0.0574999999999999,0.042759571224451,0.0006103515625,0.23610735743351094
0.058,0.0427512191236019,0.00030517578125,0.23458037929230371
0.0584999999999999,0.0427432879805564,0.0,0.23349593464487983
0.059,0.0427352860569953,0.0006103515625,0.23231563145391487
0.0595,0.0427271761000156,0.0006103515625,0.23103574739254015
0.06,0.0427190214395523,0.0006103515625,0.22973520871351047
0.0605,0.0427111946046352,0.0006103515625,0.22873887071058088
0.061,0.0427031628787517,0.00030517578125,0.22751457574843204
0.0615,0.0426948443055152,0.00030517578125,0.22605170370885544
0.062,0.0426869839429855,0.0,0.2250481877052113
0.0625,0.0426789633929729,0.00030517578125,0.22386053968722194
0.0629999999999999,0.0426709130406379,0.00030517578125,0.2226477869333209
0.0635,0.042662888765335,0.0006103515625,0.22146313407705567
0.0639999999999999,0.0426550321280956,0.0006103515625,0.22042244772136713
0.0645,0.0426470339298248,0.0006103515625,0.21923306325107725
0.0649999999999999,0.0426386855542659,0.0,0.2177524867563867
0.0655,0.042630661278963,0.00030517578125,0.21661802966877752
0.0659999999999999,0.0426226966083049,0.00091552734375,0.21552440794425534
0.0665,0.0426144376397132,0.00091552734375,0.2141648615688618
0.0669999999999999,0.0426066815853118,0.00030517578125,0.2132740375448982
0.0675,0.0425987392663955,0.0006103515625,0.2121653893486546
0.0679999999999999,0.0425905250012874,0.0006103515625,0.21081981275350486
0.0685,0.0425823517143726,0.00030517578125,0.20955441768509428
0.0689999999999999,0.0425743423402309,0.00030517578125,0.20845219492405773
0.0695,0.0425663031637668,0.00030517578125,0.207312909264224
0.0699999999999999,0.0425583906471729,0.0006103515625,0.2062773282771384
0.0705,0.0425501763820648,0.00030517578125,0.20496998074716974
0.0709999999999999,0.0425421372056007,0.00091552734375,0.20384692666750925
0.0715,0.0425339676439762,0.0006103515625,0.2026122042397795
0.0719999999999999,0.0425261408090591,0.0006103515625,0.20168201032184147
0.0725,0.0425179302692413,0.0006103515625,0.20039368579134992
0.0729999999999999,0.0425099283456802,0.0,0.19931373816754708
0.0735,0.0425019301474094,0.00030517578125,0.1982270689882795
0.0739999999999999,0.0424938611686229,0.0006103515625,0.19707616079464232
0.0745,0.042485736310482,0.00030517578125,0.1958887528890552
0.0749999999999999,0.0424777157604694,0.00030517578125,0.19480297666608967
0.0755,0.0424696430563926,0.0,0.1936702690809128
0.0759999999999999,0.042461559176445,0.0006103515625,0.19253488411159517
0.0765,0.042453609406948,0.00091552734375,0.19151593268251133
0.0769999999999999,0.0424452610313892,-0.00030517578125,0.19016037317572612
0.0775,0.0424373894929885,0.00030517578125,0.18924138310293231
0.0779999999999999,0.0424292720854282,0.00091552734375,0.18808739855266013
0.0785,0.0424215085804462,0.0006103515625,0.1872300218674445
0.0789999999999999,0.0424132198095321,0.00030517578125,0.18590681329614275
0.0795,0.0424051843583583,-0.0006103515625,0.18483845777500202
0.0799999999999999,0.042396891862154,0.0,0.1835650711649147
0.0805,0.0423888973891735,0.00030517578125,0.18256621433164646
0.0809999999999999,0.0423809476196765,0.00030517578125,0.18158530759355426
0.0815,0.0423731133341789,0.00030517578125,0.18067837536821768
0.0819999999999999,0.0423646345734596,0.0006103515625,0.1792349491823675
0.0825,0.042356714606285,0.0,0.17830548244288952
0.0829999999999999,0.0423487983644008,0.00030517578125,0.17735032515602608
0.0835,0.0423406586050987,0.0006103515625,0.1762024402021097
0.0839999999999999,0.0423325709998607,0.0006103515625,0.17511558241176345
0.0845,0.0423245802521705,0.00030517578125,0.1741117383819342
0.0849999999999999,0.0423163548111915,0.0006103515625,0.17291872528070332
0.0855,0.0423083677887916,0.0,0.17193816991080127
0.0859999999999999,0.0423004478216171,0.0006103515625,0.17099620489905634
0.0865,0.0422924049198627,0.00030517578125,0.1699421379614031
0.0869999999999999,0.0422843545675277,0.00091552734375,0.16888760879385806
0.0875,0.0422761887311935,0.0006103515625,0.16775002346845574
0.0879999999999999,0.0422684252262115,0.0,0.16694025431884058
0.0885,0.042259968817234,0.00030517578125,0.16556673293799928
0.0889999999999999,0.0422519035637378,-0.00030517578125,0.16456033801414047
0.0895,0.0422441624104976,0.00091552734375,0.1637929725247229
0.0899999999999999,0.0422360114753246,0.00030517578125,0.16266911608290102
0.0905,0.042227853089571,0.0006103515625,0.1615637459817179
0.0909999999999999,0.0422198548913002,0.0006103515625,0.16059768111021
0.0915,0.0422117412090301,0.0,0.15953727614621133
0.0919999999999999,0.0422039404511451,0.0006103515625,0.15872080351743056
0.0925,0.0421956591308116,0.0006103515625,0.1575153852075555
0.0929999999999999,0.0421876832842826,0.00030517578125,0.15657756942401088
0.0935,0.042179275304079,0.0006103515625,0.15531150893475676
0.0939999999999999,0.042171511799097,0.00030517578125,0.1545716065443283
0.0945,0.0421635210514068,0.00091552734375,0.15361815579564914
0.0949999999999999,0.0421554259955883,0.0,0.15258402171071295
0.0955,0.042147196829319,0.0,0.15146325543554862
0.0959999999999999,0.0421393923461437,0.00030517578125,0.15067839842606023
0.0965,0.0421310476958751,0.0006103515625,0.14946811589781608
0.0969999999999999,0.0421232432126998,0.00091552734375,0.14869355779764623
0.0975,0.0421149730682373,0.00030517578125,0.14754908166829142
0.0979999999999999,0.0421070009469985,0.00091552734375,0.14665315503830614
0.0985,0.0420987233519554,0.00030517578125,0.14552787438910966
0.0989999999999999,0.0420906580984592,0.00030517578125,0.1445857060596326
0.0995,0.0420827828347682,0.00030517578125,0.1437744384416197
0.0999999999999999,0.0420748405158519,0.00091552734375,0.14288996849283653
0.1005,0.0420665331184864,0.00030517578125,0.14173823720319548
0.1009999999999999,0.0420585945248603,0.0006103515625,0.14088536423238263
0.1015,0.0420505478978157,0.00091552734375,0.13994165242526815
0.1019999999999999,0.0420423187315464,0.0,0.1388723523934433
0.1025,0.0420342050492763,0.00030517578125,0.13790786179785805
0.1029999999999999,0.0420262478291988,0.00030517578125,0.1370582062267605
0.1035,0.0420181900262832,0.00091552734375,0.13612588996235397
0.1039999999999999,0.0420099720358848,0.001220703125,0.13508505603065604
0.1045,0.042002011090517,0.0006103515625,0.13424302465346644
0.1049999999999999,0.0419937819242477,0.0006103515625,0.1332035445316646
0.1055,0.0419858172535896,0.00030517578125,0.13236751451871273
0.1059999999999999,0.0419776290655136,0.0,0.131365778456768
0.1065,0.0419697687029838,0.0006103515625,0.13060434545595634
0.1069999999999999,0.0419614091515541,0.0006103515625,0.12947967672456936
0.1075,0.0419537723064422,0.00030517578125,0.12888142593642998
0.1079999999999999,0.0419457517564296,0.0006103515625,0.12797251421024264
0.1085,0.0419380478560924,0.00030517578125,0.12728275860934637
0.1089999999999999,0.0419295020401477,0.0006103515625,0.12599591209265895
0.1095,0.0419218279421329,0.00030517578125,0.12536090589551607
0.1099999999999999,0.0419135503470897,0.0006103515625,0.12428223080484911
0.1105,0.0419054701924324,0.00030517578125,0.12337072758220613
0.1109999999999999,0.0418971739709377,0.0006103515625,0.1223231233038756
0.1115,0.0418893918395042,0.00091552734375,0.12164259160256446
0.1119999999999999,0.0418813526630401,0.0,0.12076115081348776
0.1125,0.0418731942772865,0.00030517578125,0.1198044495933798
0.1129999999999999,0.0418654717504978,0.0,0.11914856163661926
0.1135,0.0418571941554546,0.0006103515625,0.1180993180977519
0.1139999999999999,0.041849210858345,0.00030517578125,0.11727422904981148
0.1145,0.0418413467705249,0.0006103515625,0.11652233888973951
0.1149999999999999,0.0418331287801265,0.00030517578125,0.1155272539428898
0.1155,0.0418251603841781,0.00030517578125,0.11471854827664184
0.1159999999999999,0.041816808283329,0.00030517578125,0.11365958854038359
0.1165,0.0418090559542179,0.0006103515625,0.11301780674459116
0.1169999999999999,0.0418010056018829,0.0006103515625,0.11215518665057944
0.1175,0.0417929291725158,0.0006103515625,0.11128219371371681
0.118,0.04178486764431,0.0006103515625,0.11042635594834825
0.1185,0.0417768023908138,0.00030517578125,0.10957354892203326
0.119,0.0417687334120273,-0.00030517578125,0.10872373814979652
0.1195,0.0417604073882103,0.00030517578125,0.10771779735150001
0.12,0.0417527854442596,0.00030517578125,0.1071800463075371
0.1205,0.0417445302009582,0.0006103515625,0.10620690216695029
0.121,0.0417366623878479,0.00030517578125,0.10549967940827847
0.1215,0.04172845184803,0.0006103515625,0.10456542134316216
0.122,0.0417208820581436,0.0006103515625,0.10404557111349622
0.1225,0.0417124480009079,0.00030517578125,0.10295581632454937
0.123,0.0417045131325721,0.00030517578125,0.10221690567243195
0.1235,0.0416962802410125,0.00091552734375,0.10128998016037662
0.124,0.0416880287230014,0.0006103515625,0.10037355821978285
0.1245,0.0416801869869232,0.0006103515625,0.09972313377165813
0.125,0.0416719689965248,0.0006103515625,0.0988266290649607
0.1254999999999999,0.0416640304028987,0.0006103515625,0.0981144117895561
0.126,0.0416560806334018,0.0,0.09738586308397776
0.1264999999999999,0.0416481718420982,0.0006103515625,0.09667628538855222
0.127,0.0416398718953132,0.0,0.09572701924416685
0.1274999999999999,0.0416318289935588,0.0006103515625,0.09495630545696998
0.128,0.0416238903999328,0.0,0.09424812744847838
0.1284999999999999,0.0416155792772769,0.0006103515625,0.09331537319195846
0.129,0.0416075848042964,0.0,0.09259333891985187
0.1294999999999999,0.0415996573865413,0.0006103515625,0.09190522151457381
0.13,0.0415916368365287,0.00091552734375,0.09115446138732787
0.1304999999999999,0.0415833219885826,0.0006103515625,0.09023560354050467
0.131,0.0415753945708274,0.00030517578125,0.08956464967873426
0.1314999999999999,0.0415673144161701,0.00030517578125,0.08879769039966244
0.132,0.0415588356554508,0.0,0.08780886117018583
0.1324999999999999,0.0415513478219509,0.00030517578125,0.08741608400048123
0.133,0.0415432676672935,0.0006103515625,0.08664074190826086
0.1334999999999999,0.0415352284908294,0.0006103515625,0.08589668834498672
0.134,0.0415270961821079,0.00030517578125,0.08510399561393364
0.1344999999999999,0.0415192805230617,0.00030517578125,0.08449872705001636
0.135,0.0415110439062118,0.0006103515625,0.08364443017924077
0.1354999999999999,0.04150315746665,0.0006103515625,0.08300441852033785
0.136,0.041494894772768,0.0006103515625,0.0821478183800831
0.1364999999999999,0.0414869673550128,0.0006103515625,0.08149568134548686
0.137,0.0414790734648704,0.0,0.08085520041556166
0.1374999999999999,0.0414706468582153,0.00030517578125,0.07991764179211863
0.138,0.0414627343416214,0.00091552734375,0.079292127259776
0.1384999999999999,0.0414547659456729,0.00030517578125,0.07862709475650174
0.139,0.0414467900991439,0.0006103515625,0.07795502477911484
0.1394999999999999,0.0414386279881,0.00030517578125,0.07718167101408112
0.14,0.0414307825267314,0.0006103515625,0.07658971293516562
0.1404999999999999,0.0414224900305271,0.0006103515625,0.07575014540082155
0.141,0.0414142347872257,0.00030517578125,0.07495259284360065
0.1414999999999999,0.0414064601063728,0.0006103515625,0.07442386041356464
0.142,0.0413982272148132,0.0006103515625,0.07363657772318861
0.1424999999999999,0.0413902550935745,0.00030517578125,0.0730016683016992
0.143,0.0413819998502731,0.00030517578125,0.07221626059041192
0.1434999999999999,0.0413741953670978,0.0006103515625,0.07167995367404095
0.144,0.0413660556077957,0.00030517578125,0.07095561353247178
0.1444999999999999,0.0413578636944294,0.0,0.0702140370465998
0.145,0.0413499139249324,0.0,0.06960792223996756
0.1454999999999999,0.0413419678807258,0.00030517578125,0.06899945539332969
0.146,0.0413335151970386,0.0006103515625,0.06813082622933822
0.1464999999999999,0.0413259677588939,0.0006103515625,0.06774586209308053
0.147,0.0413178727030754,0.00091552734375,0.06705492006299645
0.1474999999999999,0.041309330612421,0.0006103515625,0.06614909136307918
0.148,0.0413015633821487,0.00091552734375,0.06566250800535918
0.1484999999999999,0.041293479502201,0.0006103515625,0.06500222510691121
0.149,0.041285466402769,0.0,0.06438159459612872
0.1494999999999999,0.0412770994007587,0.0006103515625,0.06358800868714619
0.15,0.0412692986428737,0.0006103515625,0.06309203912357479
0.1504999999999999,0.0412611439824104,0.0,0.0624105334892172
0.151,0.0412531048059463,0.00030517578125,0.06179369112886245
0.1514999999999999,0.0412451922893524,0.00091552734375,0.06123878319271884
0.152,0.041237249970436,0.00030517578125,0.0606641071472719
