time [s],Lmtc [m],STIM [ ],Fsee [N]
0.0,0.0455022677779197,0.0006103515625,0.1090341467759581
0.0004999999999999,0.0455021560192108,0.0006103515625,0.1089615180262642
0.001,0.0455023646354675,0.00030517578125,0.1090949730076039
0.0014999999999999,0.0455023236572742,0.0006103515625,0.10906695002935698
0.002,0.0455022379755973,0.0006103515625,0.10901065999232357
0.0024999999999999,0.0455021075904369,0.00030517578125,0.10892641807426932
0.003,0.0455023199319839,0.0,0.10906268749243828
0.0034999999999999,0.0455020815134048,0.0,0.10890885539824256
0.004,0.045501958578825,0.0006103515625,0.10883184204443841
0.0044999999999999,0.0455023162066936,0.0,0.10906276304992255
0.005,0.0455019138753414,0.0006103515625,0.10880441063464001
0.0054999999999999,0.0455022007226944,0.0006103515625,0.10899074864725988
0.006,0.0455021485686302,0.0006103515625,0.10895685449697162
0.0064999999999999,0.0455023162066936,0.0,0.10906412110945539
0.007,0.0455018542706966,0.0006103515625,0.10876778366739484
0.0074999999999999,0.0455019772052764,0.00030517578125,0.10885085711047343
0.008,0.0455014333128929,0.0,0.10850791291738555
0.0084999999999999,0.0455001443624496,0.0,0.1077034096018257
0.009,0.045497428625822,0.0006103515625,0.10602488871024851
0.0094999999999999,0.0454931557178497,0.0,0.10343800251655204
0.01,0.0454863905906677,0.00030517578125,0.09943303739242276
0.0104999999999999,0.0454774610698223,0.00030517578125,0.09433886439836632
0.011,0.0454667434096336,0.00091552734375,0.08850699278296248
0.0114999999999999,0.0454531200230121,0.00091552734375,0.08145848419564851
0.012,0.0454378724098205,0.00030517578125,0.07411397794156525
0.0124999999999999,0.0454207062721252,0.0006103515625,0.06648212665515724
0.013,0.0454026535153389,0.00091552734375,0.05922850377630096
0.0134999999999999,0.0453827194869518,0.0006103515625,0.0520025827151161
0.014,0.0453622564673423,0.0006103515625,0.04552977585678881
0.0144999999999999,0.0453410297632217,0.00030517578125,0.03973278639846583
0.015,0.0453196056187152,0.0006103515625,0.03481533626321272
0.0154999999999999,0.045297835022211,0.00030517578125,0.030648395411214596
0.016,0.0452764853835105,0.00030517578125,0.02736852116904481
0.0164999999999999,0.0452552884817123,0.00091552734375,0.024717632781230837
0.017,0.0452338531613349,0.00030517578125,0.022449710985185556
0.0174999999999999,0.0452128909528255,0.0006103515625,0.020654376172668652
0.018,0.0451918579638004,0.00091552734375,0.019071277973232496
0.0184999999999999,0.0451710224151611,0.00030517578125,0.01770627297117868
0.019,0.0451498962938785,0.0006103515625,0.016391283524288466
0.0194999999999999,0.045129619538784,0.00030517578125,0.015363754213708836
0.02,0.0451085269451141,0.00030517578125,0.014196667318248465
0.0204999999999999,0.0450880005955696,0.0006103515625,0.013216663854834828
0.021,0.0450674854218959,0.00030517578125,0.012268592939179371
0.0214999999999999,0.0450465939939022,0.0006103515625,0.01127701708062603
0.022,0.0450259558856487,0.00030517578125,0.010375247835237262
0.0224999999999999,0.0450048968195915,0.0,0.00942779327492917
0.023,0.0449844226241111,0.0006103515625,0.008623165426424731
0.0234999999999999,0.0449632927775383,0.0,0.007731820490617281
0.024,0.0449429675936698,0.0006103515625,0.007008116089999696
0.0244999999999999,0.0449218675494194,0.00030517578125,0.006186864962200831
0.025,0.0449009574949741,0.0,0.005435832386819557
0.0254999999999999,0.0448802895843982,0.00030517578125,0.004752076365933759
0.026,0.0448596477508544,0.0006103515625,0.004101681560550821
0.0264999999999999,0.044838510453701,0.0,0.0034294525024835157
0.027,0.0448178946971893,0.00091552734375,0.00285843762678248
0.0274999999999999,0.044797133654356,0.00091552734375,0.0023107000614538005
0.028,0.0447759740054607,0.0006103515625,0.0017754380453502748
0.0284999999999999,0.0447557419538497,0.0,0.0013633302206049489
0.029,0.0447344705462455,0.001220703125,0.0009299020511709084
0.0294999999999999,0.0447137914597988,0.00091552734375,0.0005970071448799952
0.03,0.0446928516030311,0.00030517578125,0.0003194765399622704
0.0304999999999999,0.0446721389889717,0.0006103515625,0.00012691208432597718
0.031,0.0446510426700115,0.00030517578125,1.585122181727768e-05
0.0314999999999999,0.0446302480995655,0.0,0.0
0.032,0.0446095131337642,0.0006103515625,0.0
0.0324999999999999,0.0445887930691242,0.00030517578125,0.0
0.033,0.0445677228271961,0.0006103515625,0.0
0.0334999999999999,0.044546864926815,0.00030517578125,0.0
0.034,0.0445262566208839,0.0006103515625,0.0
0.0344999999999999,0.0445049293339252,0.0006103515625,0.0
0.035,0.0444845594465732,0.0,0.0
0.0354999999999999,0.0444634072482585,0.0,0.0
0.036,0.044442594051361,0.0006103515625,0.0
0.0364999999999999,0.0444217212498188,0.0,0.0
0.037,0.0444007590413093,0.00091552734375,0.0
0.0374999999999999,0.0443799421191215,0.00030517578125,0.0
0.038,0.0443591177463531,0.0006103515625,0.0
0.0384999999999999,0.0443383604288101,0.0006103515625,0.0
0.039,0.0443174690008163,0.0,0.0
0.0394999999999999,0.0442966409027576,0.0,0.0
0.04,0.0442755930125713,0.00091552734375,0.0
0.0404999999999999,0.0442554131150245,0.00030517578125,0.0
0.041,0.0442340224981308,0.0006103515625,0.0
0.0414999999999999,0.0442134998738765,0.001220703125,0.0
0.042,0.0441926605999469,0.00030517578125,0.0
0.0424999999999999,0.0441719815135002,0.0006103515625,0.0
0.043,0.0441512577235698,0.0006103515625,0.0
0.0434999999999999,0.0441301837563514,0.0006103515625,0.0
0.044,0.0441095791757106,0.0006103515625,0.0
0.0444999999999999,0.0440887175500392,0.0006103515625,0.0
0.045,0.0440678559243679,0.00030517578125,0.0
0.0454999999999999,0.0440470166504383,0.0006103515625,0.0
0.046,0.0440264865756034,0.0,0.0
0.0464999999999999,0.0440053716301918,0.00030517578125,0.0
0.047,0.0439847856760025,0.0006103515625,0.0
0.0474999999999999,0.0439634323120117,0.00091552734375,0.0
0.048,0.043942991644144,0.00030517578125,0.0
0.0484999999999999,0.0439222231507301,0.00091552734375,0.0
0.049,0.0439012721180915,0.0006103515625,0.0
0.0494999999999999,0.0438805259764194,0.0,0.0
0.05,0.043859589844942,0.0006103515625,0.0
0.0504999999999999,0.0438389927148819,0.00091552734375,0.0
0.051,0.0438180081546306,0.0006103515625,0.0
0.0514999999999999,0.0437975488603115,0.00030517578125,0.0
0.052,0.0437763519585132,0.0006103515625,0.0
0.0524999999999999,0.0437557622790336,0.00030517578125,0.0
0.053,0.0437344126403331,0.0006103515625,0.0
0.0534999999999999,0.0437139645218849,0.0006103515625,0.0
0.054,0.0436929240822792,0.00030517578125,0.0
0.0544999999999999,0.0436719581484794,0.0,0.0
0.055,0.0436511561274528,0.0006103515625,0.0
0.0554999999999999,0.0436301305890083,0.0006103515625,0.0
0.056,0.0436096787452697,0.00030517578125,0.0
0.0564999999999999,0.0435886234045028,0.0006103515625,0.0
0.057,0.0435680635273456,0.00030517578125,0.0
0.0574999999999999,0.0435469187796115,0.0,0.0
0.058,0.0435263887047767,0.00091552734375,0.0
0.0584999999999999,0.0435052439570426,-0.00030517578125,0.0
0.059,0.043484840542078,0.0006103515625,0.0
0.0595,0.0434639416635036,0.00030517578125,0.0
0.06,0.0434429235756397,0.0,0.0
0.0605,0.0434224121272563,0.00091552734375,0.0
0.061,0.0434015281498432,0.0006103515625,0.0
0.0615,0.0433807075023651,0.00091552734375,0.0
0.062,0.0433595702052116,0.00091552734375,0.0
0.0625,0.0433391854166984,0.00030517578125,0.0
0.0629999999999999,0.043318036943674,0.00030517578125,0.0
0.0635,0.0432973429560661,0.0006103515625,0.0
0.0639999999999999,0.043276373296976,0.00030517578125,0.0
0.0645,0.0432555861771106,0.00030517578125,0.0
0.0649999999999999,0.0432348363101482,0.0006103515625,0.0
0.0655,0.0432141311466693,0.00030517578125,0.0
0.0659999999999999,0.0431931801140308,0.00030517578125,0.0
0.0665,0.043172150850296,0.00030517578125,0.0
0.0669999999999999,0.0431515909731388,0.001220703125,0.0
0.0675,0.0431306101381778,0.0006103515625,0.0
0.0679999999999999,0.0431100353598594,0.00030517578125,0.0
0.0685,0.0430892370641231,0.0006103515625,0.0
0.0689999999999999,0.0430683493614196,0.0006103515625,0.0
0.0695,0.0430471710860729,0.00030517578125,0.0
0.0699999999999999,0.0430268533527851,0.00030517578125,0.0
0.0705,0.0430058054625988,0.0,0.0
0.0709999999999999,0.0429850220680236,0.00030517578125,0.0
0.0715,0.0429640114307403,0.00030517578125,0.0
0.0719999999999999,0.0429432801902294,0.00030517578125,0.0
0.0725,0.0429223105311393,0.0,0.0
0.0729999999999999,0.0429013520479202,0.0006103515625,0.0
0.0735,0.042880855500698,0.0006103515625,0.0
0.0739999999999999,0.0428596474230289,0.0,0.0
0.0745,0.0428387969732284,0.0006103515625,0.0
0.0749999999999999,0.0428178720176219,0.0006103515625,0.0
0.0755,0.0427970811724662,0.0006103515625,0.0
0.0759999999999999,0.042776022106409,0.0006103515625,0.0
0.0765,0.0427554622292518,0.00030517578125,0.0
0.0769999999999999,0.0427344515919685,0.00091552734375,0.0
0.0775,0.0427136272192001,0.0,0.0
0.0779999999999999,0.0426926724612712,0.00091552734375,0.0
0.0785,0.0426719561219215,0.00091552734375,0.0
0.0789999999999999,0.0426513627171516,0.001220703125,0.0
0.0795,0.0426302775740623,0.00030517578125,0.0
0.0799999999999999,0.0426097959280014,0.0,0.0
0.0805,0.0425885803997516,0.00091552734375,0.0
0.0809999999999999,0.0425681918859481,0.0006103515625,0.0
0.0815,0.0425473377108573,0.0006103515625,0.0
0.0819999999999999,0.0425263568758964,0.0,0.0
0.0825,0.0425055436789989,0.00030517578125,0.0
0.0829999999999999,0.042484775185585,0.0006103515625,0.0
0.0835,0.04246411845088,0.0006103515625,0.0
0.0839999999999999,0.0424430295825004,0.0,0.0
0.0845,0.0424222685396671,0.0,0.0
0.0849999999999999,0.0424010381102561,0.00091552734375,0.0
0.0855,0.0423805601894855,0.00091552734375,0.0
0.0859999999999999,0.0423591844737529,0.00030517578125,0.0
0.0865,0.0423388332128524,0.00030517578125,0.0
0.0869999999999999,0.0423176661133766,0.0006103515625,0.0
0.0875,0.042297039180994,0.00030517578125,0.0
0.0879999999999999,0.0422762781381607,0.00030517578125,0.0
0.0885,0.0422555543482303,0.0006103515625,0.0
0.0889999999999999,0.042234793305397,0.0,0.0
0.0895,0.0422134213149547,0.00091552734375,0.0
0.0899999999999999,0.0421928949654102,0.00091552734375,0.0
0.0905,0.0421720296144485,0.00030517578125,0.0
0.0909999999999999,0.0421510748565197,0.0006103515625,0.0
0.0915,0.0421303659677505,0.0006103515625,0.0
0.0919999999999999,0.042109590023756,0.0006103515625,0.0
0.0925,0.0420883856713771,0.0,0.0
0.0929999999999999,0.0420676097273826,0.00091552734375,0.0
0.0935,0.0420466028153896,0.00091552734375,0.0
0.0939999999999999,0.0420256443321704,0.0,0.0
0.0945,0.042005356401205,0.00030517578125,0.0
0.0949999999999999,0.0419843718409538,0.0006103515625,0.0
0.0955,0.04196373000741,0.0006103515625,0.0
0.0959999999999999,0.0419426783919334,0.0,0.0
0.0965,0.0419220104813575,0.00030517578125,0.0
0.0969999999999999,0.0419009737670421,0.00030517578125,0.0
0.0975,0.0418802201747894,0.00030517578125,0.0
0.0979999999999999,0.0418597050011158,0.0006103515625,0.0
0.0985,0.0418389625847339,0.00091552734375,0.0
0.0989999999999999,0.0418182499706745,0.0,0.0
0.0995,0.0417974330484867,0.0006103515625,0.0
0.0999999999999999,0.0417766086757183,0.0006103515625,0.0
0.1005,0.0417554229497909,0.0006103515625,0.0
0.1009999999999999,0.0417350530624389,0.00030517578125,0.0
0.1015,0.0417139865458011,0.00030517578125,0.0
0.1019999999999999,0.0416934341192245,0.00091552734375,0.0
0.1025,0.0416725389659404,0.00091552734375,0.0
0.1029999999999999,0.0416518561542034,0.001220703125,0.0
0.1035,0.0416317097842693,0.00030517578125,0.0
0.1039999999999999,0.0416121408343315,0.00030517578125,0.0
0.1045,0.0415933728218078,0.00030517578125,0.0
0.1049999999999999,0.0415750704705715,0.00091552734375,0.0
0.1055,0.0415586270391941,0.00030517578125,0.0
0.1059999999999999,0.0415440090000629,0.0,0.0
0.1065,0.0415317378938198,0.00030517578125,0.0
0.1069999999999999,0.0415210276842117,0.0006103515625,0.0
0.1075,0.0415132753551006,0.00030517578125,0.0
0.1079999999999999,0.0415084399282932,0.0,0.0
0.1085,0.0415066331624984,0.0006103515625,0.0
0.1089999999999999,0.0415074117481708,0.0006103515625,0.0
0.1095,0.0415113531053066,0.0006103515625,0.0
0.1099999999999999,0.0415186025202274,0.0006103515625,0.0
0.1105,0.0415278114378452,0.0,0.0
0.1109999999999999,0.0415401048958301,0.0006103515625,0.0
0.1115,0.0415538996458053,0.0,0.0
0.1119999999999999,0.0415700227022171,0.00030517578125,0.0
0.1125,0.0415871888399124,0.00091552734375,0.0
0.1129999999999999,0.0416060425341129,0.0006103515625,0.0
0.1135,0.041625503450632,0.0,0.0
0.1139999999999999,0.0416459590196609,0.0006103515625,0.0
0.1145,0.0416664630174636,0.00030517578125,0.0
0.1149999999999999,0.0416873767971992,0.00030517578125,0.0
0.1155,0.0417079478502273,0.00030517578125,0.0
0.1159999999999999,0.0417289659380912,0.00030517578125,0.0
0.1165,0.0417501479387283,0.0006103515625,0.0
0.1169999999999999,0.0417704172432422,0.0006103515625,0.0
0.1175,0.0417915396392345,0.0006103515625,0.0
0.118,0.0418117232620716,0.0006103515625,0.0
0.1185,0.0418325141072273,0.00091552734375,0.0
0.119,0.041852980852127,0.00030517578125,0.0
0.1195,0.0418741069734096,0.00030517578125,0.0
0.12,0.0418948754668235,0.0006103515625,0.0
0.1205,0.0419157557189464,0.00030517578125,0.0
0.121,0.0419363416731357,0.0006103515625,0.0
0.1215,0.0419571176171302,0.0006103515625,0.0
0.122,0.0419777706265449,0.0,0.0
0.1225,0.0419981181621551,0.0006103515625,0.0
0.123,0.0420194417238235,0.0006103515625,0.0
0.1235,0.0420399270951747,0.0006103515625,0.0
0.124,0.0420611761510372,0.0,0.0
0.1245,0.0420817397534847,0.00091552734375,0.0
0.125,0.042103074491024,0.00030517578125,0.0
0.1254999999999999,0.0421242043375968,0.00030517578125,0.0
0.126,0.0421448796987533,0.0006103515625,0.0
0.1264999999999999,0.0421659648418426,-0.00030517578125,0.0
0.127,0.0421864129602909,0.0,0.0
0.1274999999999999,0.0422072783112525,0.0006103515625,0.0
0.128,0.0422284193336963,0.00030517578125,0.0
0.1284999999999999,0.0422491431236267,0.00030517578125,0.0
0.129,0.0422700643539428,0.00091552734375,0.0
0.1294999999999999,0.0422909930348396,0.00030517578125,0.0
0.13,0.0423113591969013,0.0,0.0
0.1304999999999999,0.0423320531845092,0.0006103515625,0.0
0.131,0.0423533916473388,0.0006103515625,0.0
0.1314999999999999,0.0423739664256572,0.00030517578125,0.0
0.132,0.0423949472606182,0.00030517578125,0.0
0.1324999999999999,0.0424155443906784,0.00030517578125,0.0
0.133,0.0424367226660251,0.00030517578125,0.0
0.1334999999999999,0.0424571298062801,0.0006103515625,0.0
0.134,0.0424780696630477,0.00091552734375,0.0
0.1344999999999999,0.0424988754093647,0.00030517578125,0.0
0.135,0.0425197631120681,0.00091552734375,0.0
0.1354999999999999,0.0425404384732246,0.00030517578125,0.0
0.136,0.0425613969564437,0.00030517578125,0.0
0.1364999999999999,0.0425819978117942,0.0,0.0
0.137,0.0426030941307544,0.00030517578125,0.0
0.1374999999999999,0.0426240190863609,0.00091552734375,0.0
0.138,0.0426444374024868,0.00091552734375,0.0
0.1384999999999999,0.0426656566560268,0.0,0.0
0.139,0.0426861569285392,0.00030517578125,0.0
0.1394999999999999,0.0427073314785957,0.0006103515625,0.0
0.14,0.0427276566624641,0.00091552734375,0.0
0.1404999999999999,0.0427487716078758,0.00030517578125,0.0
0.141,0.0427694916725158,0.00091552734375,0.0
0.1414999999999999,0.0427903495728969,0.00091552734375,0.0
0.142,0.0428109876811504,0.001220703125,0.0
0.1424999999999999,0.0428321212530136,0.0006103515625,0.0
0.143,0.0428530313074588,0.0006103515625,0.0
0.1434999999999999,0.0428738035261631,0.00030517578125,0.0
0.144,0.0428944937884807,0.00030517578125,0.0
0.1444999999999999,0.0429154299199581,0.00030517578125,0.0003372410691122041
0.145,0.0429364144802093,0.0,0.002078991954841094
0.1454999999999999,0.0429570451378822,0.00030517578125,0.005174235876824953
0.146,0.0429782718420028,0.0006103515625,0.009624003848758502
0.1464999999999999,0.042998768389225,0.0,0.015061688853025751
0.147,0.0430198274552822,0.0006103515625,0.021628998500107386
0.1474999999999999,0.0430404990911483,0.00030517578125,0.028984250532020223
0.148,0.0430612936615943,0.00091552734375,0.03718651970287956
0.1484999999999999,0.0430818572640419,0.00030517578125,0.046042652018867924
0.149,0.0431026667356491,0.00091552734375,0.05569534505044267
0.1494999999999999,0.043124035000801,0.0006103515625,0.06629153184295893
0.15,0.0431444533169269,0.0,0.07705706499494165
0.1504999999999999,0.0431653670966625,0.00030517578125,0.08873823912555344
0.151,0.0431862324476242,0.0006103515625,0.1009925683035036
0.1514999999999999,0.0432068444788455,0.0006103515625,0.1134328546749779
0.152,0.0432277992367744,0.0006103515625,0.1260384675870813
0.1524999999999999,0.0432487055659294,0.00091552734375,0.1381296108174009
0.153,0.0432696752250194,0.00091552734375,0.14951695087337072
0.1534999999999999,0.0432904846966266,0.00030517578125,0.159887861703537
0.154,0.0433112606406211,0.00030517578125,0.16928740480332655
0.1544999999999999,0.0433319509029388,0.0006103515625,0.17767400315680293
0.155,0.0433529391884803,0.0006103515625,0.1853814548506512
0.1554999999999999,0.0433733128011226,0.0,0.1917208592116874
0.156,0.0433944463729858,0.00091552734375,0.19790034759562608
0.1564999999999999,0.0434151366353035,0.0006103515625,0.2029537873023304
0.157,0.0434357449412345,0.0006103515625,0.20728462092243585
0.1574999999999999,0.043456844985485,0.0,0.2114481044619819
0.158,0.0434776805341243,0.001220703125,0.21483276292966538
0.1584999999999999,0.0434980802237987,0.0006103515625,0.21738564067419483
0.159,0.0435191318392753,0.00030517578125,0.2201251025600206
0.1594999999999999,0.0435397997498512,0.00030517578125,0.22215360323665975
0.16,0.0435604527592659,0.0006103515625,0.2238729953510623
0.1604999999999999,0.0435815900564193,0.00091552734375,0.22575178321743133
0.161,0.0436020940542221,0.0006103515625,0.22681536436882374
0.1614999999999999,0.04362328723073,0.0006103515625,0.22830374394203018
0.162,0.0436438620090484,0.00030517578125,0.2290414178090707
0.1624999999999999,0.0436652302742004,0.00030517578125,0.23034084678818387
0.163,0.0436858423054218,0.0,0.230794769965868
0.1634999999999999,0.0437065996229648,0.0006103515625,0.23129508712095362
0.164,0.0437275506556034,0.00030517578125,0.2318798418660955
0.1644999999999999,0.0437482334673404,0.00030517578125,0.23213788048289538
0.165,0.0437693446874618,0.0,0.23271589579066718
0.1654999999999999,0.0437901467084884,0.00030517578125,0.23293132142247522
0.166,0.0438108332455158,0.0,0.23300111050795724
0.1664999999999999,0.0438317358493804,0.0,0.233235728009954
0.167,0.0438526757061481,0.0006103515625,0.23345705834088568
0.1674999999999999,0.0438731759786605,0.0,0.23325403810976536
0.168,0.0438943803310394,0.00030517578125,0.23367561153067568
0.1684999999999999,0.0439147911965847,0.0,0.23333797944074408
0.169,0.0439357124269008,0.0006103515625,0.2334737366795786
0.1694999999999999,0.043956484645605,0.00030517578125,0.23344961647917914
0.17,0.0439776480197906,0.00030517578125,0.23375329275224196
0.1704999999999999,0.0439984016120433,0.00030517578125,0.23364330342875927
0.171,0.0440189577639102,0.0006103515625,0.23336102977823728
0.1714999999999999,0.0440401621162891,0.00030517578125,0.2336651230951473
0.172,0.0440606847405433,0.0006103515625,0.23332215103962542
0.1725,0.044081725180149,0.00091552734375,0.233459378798321
0.173,0.0441024154424667,0.00030517578125,0.23326032360354157
0.1735,0.0441235080361366,0.0006103515625,0.23342004432172456
0.174,0.0441440716385841,0.0,0.23308390075293334
0.1745,0.0441649742424488,0.00030517578125,0.23307138146337852
0.175,0.0441855303943157,0.0,0.23274564609165355
0.1755,0.0442063808441162,-0.00030517578125,0.23270399018913346
0.176,0.0442272871732711,0.0,0.23270075760409367
0.1765,0.0442477576434612,0.0006103515625,0.23230477141367797
0.177,0.0442690104246139,0.0006103515625,0.23262273203898126
0.1775,0.0442896969616413,0.0006103515625,0.2323883204325583
0.178,0.0443105399608612,0.00030517578125,0.2323010185233333
0.1785,0.0443309843540191,0.00030517578125,0.23186503983084408
0.179,0.0443519055843353,0.00030517578125,0.2318831062976914
0.1795,0.0443725064396858,0.0006103515625,0.23160471103968527
