time [s],Lmtc [m],STIM [ ],Fsee [N]
0.0,0.04600640386343,0.00030517578125,0.08162712585827245
0.0004999999999999,0.0460064783692359,0.0006103515625,0.08167448658701143
0.001,0.04600640386343,0.0006103515625,0.08162639804302266
0.0014999999999999,0.0460064932703971,0.00030517578125,0.08168317937153652
0.002,0.0460066646337509,0.00030517578125,0.0817912938745582
0.0024999999999999,0.0460062474012374,0.0006103515625,0.08152366982708231
0.003,0.0460065603256225,0.0006103515625,0.08172452914143426
0.0034999999999999,0.0460066758096218,0.00091552734375,0.08179649112215226
0.004,0.0460068508982658,0.00030517578125,0.08190537311862374
0.0044999999999999,0.0460063777863979,0.0006103515625,0.08160020115049457
0.005,0.046006616204977,0.00030517578125,0.08175218109717176
0.0054999999999999,0.0460068248212337,0.00091552734375,0.0818831384978036
0.006,0.0460066199302673,0.0006103515625,0.08174896354761321
0.0064999999999999,0.0460067093372345,0.0006103515625,0.08180411110385444
0.007,0.0460064262151718,0.0006103515625,0.08162147988867399
0.0074999999999999,0.0460066124796867,0.0,0.08174003719312113
0.008,0.0460064113140106,0.00030517578125,0.08161052941489728
0.0084999999999999,0.0460067391395568,0.0,0.08181928098670896
0.009,0.0460066944360733,0.00030517578125,0.08178796550486356
0.0094999999999999,0.0460063219070434,0.00030517578125,0.08154876487350057
0.01,0.0460065864026546,0.00030517578125,0.08171834317471743
0.0104999999999999,0.0460059829056263,0.0006103515625,0.08133569002084665
0.011,0.0460045225918293,0.0006103515625,0.08042715335489511
0.0114999999999999,0.0460022017359733,0.0006103515625,0.07901671458050755
0.012,0.0459978654980659,0.00030517578125,0.07642480145109767
0.0124999999999999,0.045991662889719,0.0,0.07284060498006026
0.013,0.0459833703935146,0.0006103515625,0.06824398516008061
0.0134999999999999,0.0459733083844184,-0.00030517578125,0.06296625501459478
0.014,0.0459610223770141,0.00091552734375,0.056907033881309965
0.0144999999999999,0.0459473058581352,0.0,0.05066536779119868
0.015,0.0459327325224876,0.0006103515625,0.04463000770327796
0.0154999999999999,0.0459165312349796,0.00091552734375,0.03852701818885743
0.016,0.0459003560245037,0.0006103515625,0.03315377735935557
0.0164999999999999,0.0458832345902919,0.0006103515625,0.02809248836665709
0.017,0.0458663366734981,0.0006103515625,0.023777173848874178
0.0174999999999999,0.0458491221070289,0.0006103515625,0.01994847931648809
0.018,0.0458319783210754,0.00030517578125,0.016678485519806486
0.0184999999999999,0.0458155050873756,0.00030517578125,0.014047183783796779
0.019,0.0457981973886489,0.0,0.011584240942142762
0.0194999999999999,0.0457812920212745,0.0006103515625,0.009568086095123109
0.02,0.0457646921277046,0.0006103515625,0.007899636629741207
0.0204999999999999,0.0457482784986496,0.00030517578125,0.006496792493422684
0.021,0.0457317158579826,0.0,0.005262818069840694
0.0214999999999999,0.0457150712609291,0.0006103515625,0.0041898390857700064
0.022,0.0456991046667099,0.00030517578125,0.0033561809660381356
0.0224999999999999,0.0456824637949466,0.0006103515625,0.0025590479769417997
0.023,0.0456659346818923,0.0,0.001895659824618067
0.0234999999999999,0.0456498600542545,0.00030517578125,0.0013774202655045236
0.024,0.0456329993903636,0.0,0.0008929147998373038
0.0244999999999999,0.0456168688833713,0.00030517578125,0.0005524073967567373
0.025,0.0456005297601223,0.00030517578125,0.0002849402694376751
0.0254999999999999,0.0455837696790695,0.0006103515625,9.492797065672186e-05
0.026,0.045567512512207,0.00030517578125,9.542032314322316e-06
0.0264999999999999,0.0455507598817348,0.0006103515625,0.0
0.027,0.0455346032977104,0.0006103515625,0.0
0.0274999999999999,0.0455177202820777,0.0006103515625,0.0
0.028,0.0455013364553451,0.00030517578125,0.0
0.0284999999999999,0.0454850941896438,0.0,0.0
0.029,0.0454682037234306,0.00030517578125,0.0
0.0294999999999999,0.0454519465565681,0.00030517578125,0.0
0.03,0.0454355329275131,0.0006103515625,0.0
0.0304999999999999,0.045419193804264,0.0006103515625,0.0
0.031,0.0454020239412784,0.00030517578125,0.0
0.0314999999999999,0.0453859902918338,0.00030517578125,0.0
0.032,0.0453693605959415,0.00030517578125,0.0
0.0324999999999999,0.0453526973724365,0.0,0.0
0.033,0.0453364066779613,0.00030517578125,0.0
0.0334999999999999,0.0453197173774242,0.00091552734375,0.0
0.034,0.045303389430046,0.00030517578125,0.0
0.0344999999999999,0.0452867336571216,0.00030517578125,0.0
0.035,0.0452705025672912,0.0,0.0
0.0354999999999999,0.0452541336417198,0.00030517578125,0.0
0.036,0.0452373959124088,0.0006103515625,0.0
0.0364999999999999,0.0452209487557411,0.0,0.0
0.037,0.0452044755220413,0.00030517578125,0.0
0.0374999999999999,0.0451880730688571,0.0006103515625,0.0
0.038,0.04517163336277,0.0,0.0
0.0384999999999999,0.0451550893485546,0.00091552734375,0.0
0.039,0.0451385602355003,0.00030517578125,0.0
0.0394999999999999,0.0451217852532863,0.00091552734375,0.0
0.04,0.0451054982841014,0.0006103515625,0.0
0.0404999999999999,0.0450889095664024,0.0006103515625,0.0
0.041,0.0450721122324466,0.0006103515625,0.0
0.0414999999999999,0.0450558140873909,0.0006103515625,0.0
0.042,0.0450394228100776,0.00030517578125,0.0
0.0424999999999999,0.0450227819383144,0.0,0.0
0.043,0.0450063608586788,0.00030517578125,0.0
0.0434999999999999,0.0449896678328514,0.0006103515625,0.0
0.044,0.0449737831950187,0.0006103515625,0.0
0.0444999999999999,0.044956762343645,0.00030517578125,0.0
0.045,0.0449407212436199,0.00030517578125,0.0
0.0454999999999999,0.0449243299663066,0.00030517578125,0.0
0.046,0.0449078939855098,0.0006103515625,0.0
0.0464999999999999,0.0448915660381317,0.00030517578125,0.0
0.047,0.0448750369250774,0.00030517578125,0.0
0.0474999999999999,0.0448583178222179,0.00030517578125,0.0
0.048,0.044841855764389,0.0,0.0
0.0484999999999999,0.044825654476881,0.0,0.0
0.049,0.0448091626167297,0.00091552734375,0.0
0.0494999999999999,0.0447927340865135,0.0006103515625,0.0
0.05,0.0447761118412017,0.0006103515625,0.0
0.0504999999999999,0.0447595603764057,0.0,0.0
0.051,0.0447434149682521,0.0006103515625,0.0
0.0514999999999999,0.0447268448770046,0.0006103515625,0.0
0.052,0.0447103567421436,0.0006103515625,0.0
0.0524999999999999,0.044693861156702,0.00030517578125,0.0
0.053,0.0446772463619709,0.0006103515625,0.0
0.0534999999999999,0.0446610152721405,0.00030517578125,0.0
0.054,0.0446439497172832,0.0006103515625,0.0
0.0544999999999999,0.0446276105940341,0.0,0.0
0.055,0.044611383229494,0.0006103515625,0.0
0.0554999999999999,0.0445947721600532,0.00030517578125,0.0
0.056,0.0445783771574497,0.0,0.0
0.0564999999999999,0.0445621646940708,0.00030517578125,0.0
0.057,0.0445453748106956,0.0006103515625,0.0
0.0574999999999999,0.0445289798080921,0.0,0.0
0.058,0.0445127636194229,0.00030517578125,0.0
0.0584999999999999,0.044496152549982,0.0,0.0
0.059,0.0444795079529285,0.0006103515625,0.0
0.0595,0.0444632284343242,0.00030517578125,0.0
0.06,0.0444467775523662,0.0006103515625,0.0
0.0605,0.044430136680603,0.0006103515625,0.0
0.061,0.0444136895239353,0.00030517578125,0.0
0.0615,0.0443971753120422,0.0006103515625,0.0
0.062,0.0443806760013103,0.0006103515625,0.0
0.0625,0.0443641319870948,0.0006103515625,0.0
0.0629999999999999,0.0443473495543003,0.0006103515625,0.0
0.0635,0.0443315170705318,0.0,0.0
0.0639999999999999,0.0443146862089633,0.00030517578125,0.0
0.0645,0.0442981943488121,0.00030517578125,0.0
0.0649999999999999,0.0442817881703376,0.00030517578125,0.0
0.0655,0.044265542179346,0.0006103515625,0.0
0.0659999999999999,0.0442486181855201,0.0006103515625,0.0
0.0665,0.044231966137886,0.00030517578125,0.0
0.0669999999999999,0.0442156232893466,0.0006103515625,0.0
0.0675,0.0441990420222282,0.00030517578125,0.0
0.0679999999999999,0.0441831834614276,0.0,0.0
0.0685,0.0441664457321167,0.00030517578125,0.0
0.0689999999999999,0.0441498793661594,0.00030517578125,0.0
0.0695,0.0441336780786514,0.0,0.0
0.0699999999999999,0.0441165789961814,0.00091552734375,0.0
0.0705,0.0441005602478981,0.0006103515625,0.0
0.0709999999999999,0.044083897024393,0.00091552734375,0.0
0.0715,0.044067658483982,0.0006103515625,0.0
0.0719999999999999,0.0440510213375091,0.0006103515625,0.0
0.0725,0.0440345741808414,0.00030517578125,0.0
0.0729999999999999,0.0440182201564312,0.00030517578125,0.0
0.0735,0.0440014973282814,0.00030517578125,0.0
0.0739999999999999,0.0439853966236114,0.00030517578125,0.0
0.0745,0.0439685247838497,0.0,0.0
0.0749999999999999,0.0439522713422775,0.00091552734375,0.0
0.0755,0.0439359694719314,0.0,0.0
0.0759999999999999,0.0439192652702331,0.0006103515625,0.0
0.0765,0.0439029186964035,0.00030517578125,0.0
0.0769999999999999,0.0438864156603813,0.0006103515625,0.0
0.0775,0.0438700392842292,0.00091552734375,0.0
0.0779999999999999,0.0438532903790473,0.0006103515625,0.0
0.0785,0.0438369028270244,0.0,0.0
0.0789999999999999,0.0438203886151313,0.00030517578125,0.0
0.0795,0.0438036695122718,0.0006103515625,0.0
0.0799999999999999,0.043787445873022,0.0006103515625,0.0
0.0805,0.0437708273530006,0.0,0.0
0.0809999999999999,0.0437545925378799,0.00091552734375,0.0
0.0815,0.0437380671501159,0.0006103515625,0.0
0.0819999999999999,0.0437212772667408,0.0006103515625,0.0
0.0825,0.043704979121685,0.0,0.0
0.0829999999999999,0.0436883307993412,0.00030517578125,0.0
0.0835,0.0436717607080936,0.0,0.0
0.0839999999999999,0.0436554551124572,0.00030517578125,0.0
0.0845,0.0436387285590171,0.00030517578125,0.0
0.0849999999999999,0.043622575700283,0.0,0.0
0.0855,0.043606013059616,0.00091552734375,0.0
0.0859999999999999,0.0435897670686244,0.00030517578125,0.0
0.0865,0.0435731187462806,0.00091552734375,0.0
0.0869999999999999,0.0435565039515495,0.00091552734375,0.0
0.0875,0.0435400940477848,0.0006103515625,0.0
0.0879999999999999,0.0435234382748603,0.00091552734375,0.0
0.0885,0.0435072593390941,0.00030517578125,0.0
0.0889999999999999,0.043490245938301,0.00030517578125,0.0
0.0895,0.0434738472104072,0.00030517578125,0.0
0.0899999999999999,0.0434575900435447,0.00030517578125,0.0
0.0905,0.0434409193694591,0.0006103515625,0.0
0.0909999999999999,0.0434244386851787,0.0006103515625,0.0
0.0915,0.0434079878032207,0.00091552734375,0.0
0.0919999999999999,0.0433918088674545,0.00030517578125,0.0
0.0925,0.0433749929070472,0.00030517578125,0.0
0.0929999999999999,0.0433585755527019,0.00030517578125,0.0
0.0935,0.0433422848582267,0.00091552734375,0.0
0.0939999999999999,0.0433255434036254,0.00091552734375,0.0
0.0945,0.0433093346655368,0.0006103515625,0.0
0.0949999999999999,0.0432927571237087,0.00030517578125,0.0
0.0955,0.0432761870324611,0.00030517578125,0.0
0.0959999999999999,0.0432596541941165,0.0006103515625,0.0
0.0965,0.0432430915534496,0.00030517578125,0.0
0.0969999999999999,0.0432269088923931,0.00030517578125,0.0
0.0975,0.0432102754712104,0.00030517578125,0.0
0.0979999999999999,0.0431940071284771,0.0006103515625,0.0
0.0985,0.0431775264441967,0.00030517578125,0.0
0.0989999999999999,0.04316096752882,0.0006103515625,0.0
0.0995,0.043144341558218,0.00030517578125,0.0
0.0999999999999999,0.0431280210614204,0.0,0.0
0.1005,0.0431118682026863,0.0006103515625,0.0
0.1009999999999999,0.0430950410664081,0.001220703125,0.0
0.1015,0.0430785976350307,0.00030517578125,0.0
0.1019999999999999,0.0430620647966861,0.0006103515625,0.0
0.1025,0.0430455356836319,0.0,0.0
0.1029999999999999,0.0430290363729,0.00030517578125,0.0
0.1035,0.0430126376450061,0.0006103515625,0.0
0.1039999999999999,0.0429961495101451,0.0006103515625,0.0
0.1045,0.0429798141121864,0.00030517578125,0.0
0.1049999999999999,0.042963370680809,0.001220703125,0.0
0.1055,0.0429468974471092,0.00030517578125,0.0
0.1059999999999999,0.042930144816637,0.0006103515625,0.0
0.1065,0.0429137833416461,0.00030517578125,0.0
0.1069999999999999,0.0428974367678165,0.0006103515625,0.0
0.1075,0.0428805835545063,0.00030517578125,0.0
0.1079999999999999,0.0428643934428691,0.0006103515625,0.0
0.1085,0.0428479276597499,0.00030517578125,0.0
0.1089999999999999,0.042831290513277,0.00030517578125,0.0
0.1095,0.04281497746706,0.0006103515625,0.0
0.1099999999999999,0.0427983552217483,0.0006103515625,0.0
0.1105,0.0427820868790149,0.00091552734375,0.0
0.1109999999999999,0.0427650921046733,0.0006103515625,0.0
0.1115,0.0427492186427116,0.00030517578125,0.0
0.1119999999999999,0.0427322313189506,0.00091552734375,0.0
0.1125,0.0427154228091239,0.00030517578125,0.0
0.1129999999999999,0.042699497193098,0.0,0.0
0.1135,0.0426828078925609,0.0006103515625,0.0
0.1139999999999999,0.0426665320992469,0.00030517578125,0.0
0.1145,0.042649570852518,0.0,0.0
0.1149999999999999,0.0426332354545593,0.00091552734375,0.0
0.1155,0.0426166243851184,0.00030517578125,0.0
0.1159999999999999,0.042600117623806,0.00030517578125,0.0
0.1165,0.0425842404365539,0.00030517578125,0.0
0.1169999999999999,0.0425675362348556,0.0006103515625,0.0
0.1175,0.0425511226058006,0.00030517578125,0.0
0.118,0.0425346568226814,0.00091552734375,0.0
0.1185,0.0425181165337562,0.0006103515625,0.0
0.119,0.042501650750637,0.00030517578125,0.0
0.1195,0.0424850508570671,0.00030517578125,0.0
0.12,0.0424689352512359,0.00030517578125,0.0
0.1205,0.0424521453678607,0.0,0.0
0.121,0.0424360670149326,0.0006103515625,0.0
0.1215,0.042419608682394,0.0006103515625,0.0
0.122,0.0424028374254703,0.0006103515625,0.0
0.1225,0.0423863939940929,0.0,0.0
0.123,0.0423695296049118,0.0,0.0
0.1235,0.0423533767461776,0.00030517578125,0.0
0.124,0.0423366650938987,0.00030517578125,0.0
0.1245,0.0423202812671661,0.0006103515625,0.0
0.125,0.0423039607703685,0.00030517578125,0.0
0.1254999999999999,0.0422873646020889,0.0006103515625,0.0
0.126,0.0422708615660667,0.00030517578125,0.0
0.1264999999999999,0.0422543324530124,0.00030517578125,0.0
0.127,0.0422376431524753,0.00091552734375,0.0
0.1274999999999999,0.0422212444245815,0.0,0.0
0.128,0.0422047413885593,0.00030517578125,0.0
0.1284999999999999,0.0421884283423423,0.0,0.0
0.129,0.0421714559197425,0.0,0.0
0.1294999999999999,0.0421555489301681,0.0006103515625,0.0
0.13,0.0421389713883399,0.0,0.0
0.1304999999999999,0.0421225726604461,0.001220703125,0.0
0.131,0.0421062111854553,0.0,0.0
0.1314999999999999,0.0420894771814346,0.0006103515625,0.0
0.132,0.0420740619301795,0.00030517578125,0.0
0.1324999999999999,0.042058166116476,0.0006103515625,0.0
0.133,0.0420435778796672,0.0006103515625,0.0
0.1334999999999999,0.0420300662517547,0.00030517578125,0.0
0.134,0.0420180298388004,0.00030517578125,0.0
0.1344999999999999,0.0420081354677677,0.0,0.0
0.135,0.0420004054903984,0.00030517578125,0.0
0.1354999999999999,0.0419955030083656,0.0,0.0
0.136,0.0419929921627044,0.0006103515625,0.0
0.1364999999999999,0.0419937260448932,0.00030517578125,0.0
0.137,0.0419975407421588,0.00030517578125,0.0
0.1374999999999999,0.0420035757124424,-0.00030517578125,0.0
0.138,0.0420125536620616,0.00030517578125,0.0
0.1384999999999999,0.0420233495533466,0.00030517578125,0.0
0.139,0.0420364625751972,0.0006103515625,0.0
0.1394999999999999,0.0420505851507186,0.00030517578125,0.0
0.14,0.0420655906200408,0.00091552734375,0.0
0.1404999999999999,0.0420819371938705,0.0006103515625,0.0
0.141,0.0420980751514434,0.00091552734375,0.0
0.1414999999999999,0.0421147719025611,0.00030517578125,0.0
0.142,0.0421313606202602,0.0006103515625,0.0
0.1424999999999999,0.042147971689701,0.0006103515625,0.0
0.143,0.0421642139554023,0.00030517578125,0.0
0.1434999999999999,0.0421807244420051,0.00030517578125,0.0
0.144,0.0421972535550594,0.00091552734375,0.0
0.1444999999999999,0.0422135256230831,0.00030517578125,0.0
0.145,0.0422300212085247,0.0006103515625,0.0
0.1454999999999999,0.0422464907169342,0.00091552734375,0.0
0.146,0.0422625914216041,0.00030517578125,0.0
0.1464999999999999,0.0422791391611099,0.0006103515625,0.0
0.147,0.0422959104180336,0.0006103515625,0.0
0.1474999999999999,0.042312279343605,0.0,0.0
0.148,0.0423287265002727,0.00030517578125,0.0
0.1484999999999999,0.0423454046249389,0.00030517578125,0.0
0.149,0.0423618704080581,-0.00030517578125,0.0
0.1494999999999999,0.042378481477499,0.00030517578125,0.0
0.15,0.0423947609961032,0.0,0.0
0.1504999999999999,0.0424116365611553,0.0006103515625,0.0
0.151,0.0424276478588581,0.0006103515625,0.0
0.1514999999999999,0.0424443632364273,0.00030517578125,0.0
0.152,0.0424606129527092,0.00030517578125,0.0
0.1524999999999999,0.0424773059785366,0.00030517578125,0.0
0.153,0.0424936264753341,0.0,0.0
0.1534999999999999,0.0425100661814212,0.00030517578125,0.0
0.154,0.0425267703831195,0.00030517578125,0.0
0.1544999999999999,0.0425426699221134,0.0,0.0
0.155,0.0425597243010997,0.0,0.0
0.1554999999999999,0.0425759330391883,0.00091552734375,0.0
0.156,0.0425922349095344,0.00030517578125,0.0
0.1564999999999999,0.0426087006926536,0.00091552734375,0.0
0.157,0.0426252335309982,0.00030517578125,0.0
0.1574999999999999,0.0426419042050838,0.00030517578125,0.0
0.158,0.0426580682396888,0.0,0.0
0.1584999999999999,0.0426750928163528,0.00030517578125,0.0
0.159,0.0426913909614086,0.0006103515625,0.0
0.1594999999999999,0.0427075698971748,0.0006103515625,0.0
0.16,0.0427244193851947,0.0006103515625,0.0
0.1604999999999999,0.0427409932017326,0.00030517578125,0.0
0.161,0.0427571684122085,0.00030517578125,0.0
0.1614999999999999,0.0427740514278411,0.00030517578125,0.0
0.162,0.0427904799580574,0.00030517578125,0.0
0.1624999999999999,0.0428067222237587,0.0,0.0
0.163,0.0428231954574584,0.0,0.0
0.1634999999999999,0.0428398884832859,0.0,0.0
0.164,0.0428561754524707,0.00030517578125,0.0
0.1644999999999999,0.0428726114332675,0.00030517578125,0.0
0.165,0.0428894199430942,0.0006103515625,0.0
0.1654999999999999,0.04290571808815,0.00030517578125,0.0
0.166,0.0429221987724304,0.00030517578125,0.0
0.1664999999999999,0.0429384745657444,0.00030517578125,0.0
0.167,0.0429553911089897,0.00091552734375,0.0
0.1674999999999999,0.0429714806377887,0.00030517578125,0.0
0.168,0.0429879277944564,0.00091552734375,0.0
0.1684999999999999,0.0430048294365406,0.0006103515625,0.0
0.169,0.0430207885801792,0.00030517578125,0.0
0.1694999999999999,0.0430373884737491,0.00030517578125,0.0
0.17,0.0430541150271892,0.0006103515625,0.0
0.1704999999999999,0.0430704578757286,0.001220703125,0.0
0.171,0.0430868417024612,0.0,0.0
0.1714999999999999,0.0431033559143543,0.0006103515625,0.0
0.172,0.0431199520826339,0.00030517578125,0.0
0.1725,0.0431363880634307,0.0006103515625,0.0
0.173,0.0431533232331275,0.00030517578125,0.0
0.1735,0.0431694462895393,0.0,0.0
0.174,0.0431858003139495,0.00030517578125,0.0
0.1745,0.043202307075262,0.0,0.0
0.175,0.0432186052203178,0.0,0.0
0.1755,0.0432353168725967,0.0,0.0
0.176,0.0432514883577823,0.00030517578125,0.0
0.1765,0.0432682298123836,0.0006103515625,0.0
0.177,0.0432848520576953,0.0006103515625,1.4735588776255598e-05
0.1775,0.0433009006083011,0.00091552734375,0.0008939426406131491
0.178,0.0433176271617412,0.00030517578125,0.0031693950412515367
0.1785,0.0433338023722171,0.00091552734375,0.00662050542960853
0.179,0.0433505177497863,0.00091552734375,0.01127020568371696
0.1795,0.0433668941259384,0.0006103515625,0.01680215971698122
0.18,0.0433831289410591,0.0006103515625,0.023102623373292653
0.1805,0.043399728834629,0.00030517578125,0.030239521164254046
0.181,0.0434157438576221,0.00030517578125,0.037766397850111884
0.1815,0.0434326417744159,0.00030517578125,0.04624149200917447
0.182,0.0434489920735359,0.00030517578125,0.054976755723679736
0.1825,0.0434657745063304,0.00030517578125,0.06441675660167769
0.183,0.0434821136295795,0.0006103515625,0.07406917804476358
0.1835,0.0434985905885696,0.00030517578125,0.08427963392114274
0.184,0.0435153841972351,0.00091552734375,0.09501159358875753
0.1845,0.0435315519571304,0.0006103515625,0.1052734268796695
0.185,0.0435483790934085,0.0006103515625,0.11552054382689156
0.1855,0.043564535677433,0.0006103515625,0.12441977443409087
0.186,0.0435810685157775,0.0006103515625,0.1326236641275958
0.1865,0.0435975976288318,0.00030517578125,0.13978303512598467
0.187,0.0436140149831771,0.00030517578125,0.14586339222893926
0.1875,0.0436305403709411,0.00091552734375,0.1511269782687045
0.1879999999999999,0.0436469577252864,0.0006103515625,0.15548634476479573
0.1885,0.0436633415520191,0.00030517578125,0.15912591903989023
0.1889999999999999,0.043680191040039,-0.00030517578125,0.16254104071974873
