time [s],Lmtc [m],STIM [ ],Fsee [N]
0.0,0.048014648258686,0.00030517578125,0.2215561346896805
0.0004999999999999,0.0480148680508136,0.0,0.2217828377830911
0.001,0.048014722764492,0.00091552734375,0.22162298300615152
0.0014999999999999,0.0480151660740375,0.00030517578125,0.222080586332999
0.002,0.0480147264897823,-0.00030517578125,0.22160570511865307
0.0024999999999999,0.0480148755013942,0.0,0.22175749247589063
0.003,0.0480145886540412,0.0006103515625,0.22145180868829767
0.0034999999999999,0.0480145961046218,0.00030517578125,0.2214613429195208
0.004,0.0480149649083614,0.00091552734375,0.2218455838771433
0.0044999999999999,0.0480148382484912,0.0006103515625,0.2217033211225035
0.005,0.0480148121714592,0.0006103515625,0.22167002758300275
0.0054999999999999,0.0480147674679756,-0.00030517578125,0.22161840795551932
0.006,0.0480146184563636,0.00030517578125,0.22146023775561396
0.0064999999999999,0.0480150133371353,0.0006103515625,0.22187227685875094
0.007,0.0480146445333957,0.00030517578125,0.22147776023011045
0.0074999999999999,0.0480139181017875,0.0006103515625,0.2207373544817146
0.008,0.0480125918984413,0.00091552734375,0.21942954350461374
0.0084999999999999,0.0480098687112331,0.0006103515625,0.21679278863106427
0.009,0.0480060800909996,0.0,0.21326836188686668
0.0094999999999999,0.0480001382529735,0.00091552734375,0.20788685529434725
0.01,0.0479935966432094,0.00030517578125,0.20239244385160132
0.0104999999999999,0.0479857362806797,0.00030517578125,0.196184238602009
0.011,0.0479766204953193,0.0,0.18950296114352896
0.0114999999999999,0.0479673221707344,0.0,0.18352444244286148
0.012,0.0479568988084793,0.0,0.1774266537046959
0.0124999999999999,0.0479469336569309,0.00030517578125,0.1727389653194095
0.013,0.0479364357888698,0.0006103515625,0.1684428722327967
0.0134999999999999,0.0479258522391319,0.0,0.16489947681496797
0.014,0.047915693372488,0.0006103515625,0.1623767098326055
0.0144999999999999,0.0479046180844306,0.0006103515625,0.15957236641995667
0.015,0.0478942804038524,0.00030517578125,0.15785399669698974
0.0154999999999999,0.0478840321302413,0.00091552734375,0.15639859600298506
0.016,0.047873605042696,0.00030517578125,0.1549239754914664
0.0164999999999999,0.0478633381426334,0.0006103515625,0.15368843159926873
0.017,0.0478528849780559,0.00030517578125,0.15235749230304863
0.0174999999999999,0.0478426441550254,0.00030517578125,0.15125208291549844
0.018,0.0478326752781868,0.0006103515625,0.15035233461124775
0.0184999999999999,0.0478221178054809,0.00030517578125,0.14895980453793853
0.019,0.047812283039093,0.0006103515625,0.14819431352756063
0.0194999999999999,0.0478021949529647,0.0006103515625,0.14715285390216862
0.02,0.0477916523814201,0.0,0.14576898168141497
0.0204999999999999,0.0477818772196769,0.0,0.14503673443947512
0.021,0.0477716885507106,0.0006103515625,0.14390460192155258
0.0214999999999999,0.0477617233991622,0.00030517578125,0.14296052183541252
0.022,0.0477514043450355,0.00030517578125,0.14172830875578324
0.0224999999999999,0.0477412790060043,0.00030517578125,0.14068869793925334
0.023,0.0477312318980693,0.0006103515625,0.13970402177663924
0.0234999999999999,0.0477207116782665,0.00030517578125,0.13836080920560678
0.024,0.0477110221982002,0.00030517578125,0.13770142161407756
0.0244999999999999,0.0477012954652309,0.0,0.1369120182796223
0.025,0.0476909838616848,0.00030517578125,0.1356398326443719
0.0254999999999999,0.0476809851825237,0.00030517578125,0.13466421775570264
0.026,0.0476706959307193,0.0,0.13347130566552465
0.0264999999999999,0.0476607196033,0.0,0.13254918882854805
0.027,0.0476505868136882,0.0006103515625,0.13149228010684438
0.0274999999999999,0.0476404875516891,0.0006103515625,0.13047102887065798
0.028,0.0476307496428489,0.00091552734375,0.12970942103114946
0.0284999999999999,0.0476203635334968,0.0006103515625,0.1284333937008112
0.029,0.0476104021072387,0.0006103515625,0.12753171912526753
0.0294999999999999,0.0476004295051097,0.0006103515625,0.12660106990656442
0.03,0.047589935362339,0.0006103515625,0.12529499434923239
0.0304999999999999,0.0475803166627883,0.00030517578125,0.12467781167241862
0.031,0.0475700572133064,0.00030517578125,0.1235228840938018
0.0314999999999999,0.0475601851940155,0.00030517578125,0.122684840050222
0.032,0.0475498251616954,0.00030517578125,0.12147875999334608
0.0324999999999999,0.0475399419665336,0.00030517578125,0.12066101551238251
0.033,0.0475296750664711,0.00030517578125,0.11954460653247782
0.0334999999999999,0.0475194938480854,-0.00030517578125,0.11852594048417713
0.034,0.0475096367299556,0.00030517578125,0.1177419761444497
0.0344999999999999,0.0474995002150535,0.00030517578125,0.11672981335411299
0.035,0.0474891513586044,0.00030517578125,0.11559276623569116
0.0354999999999999,0.0474790930747985,0.00030517578125,0.11469541874276828
0.036,0.0474692769348621,0.0,0.11394747387646867
0.0364999999999999,0.0474592149257659,0.0006103515625,0.11299026716238572
0.037,0.047449205070734,0.00091552734375,0.11207524457453318
0.0374999999999999,0.0474390275776386,0.00091552734375,0.11104879552462729
0.038,0.0474288910627365,0.0,0.11007584564052245
0.0384999999999999,0.0474186353385448,0.00091552734375,0.10903839976971676
0.039,0.0474085286259651,0.0006103515625,0.10812777668669728
0.0394999999999999,0.0473985597491264,0.00091552734375,0.10730477641954936
0.04,0.0473884157836437,0.0,0.10634713368360821
0.0404999999999999,0.0473782494664192,0.0006103515625,0.10538828681334365
0.041,0.0473681762814521,0.0,0.10450315235389095
0.0414999999999999,0.0473582968115806,0.0006103515625,0.10373915133718654
0.042,0.0473480261862278,0.0,0.10269494245896316
0.0424999999999999,0.0473380461335182,0.00030517578125,0.10187214827003077
0.043,0.0473279953002929,0.0006103515625,0.10098975053501208
0.0434999999999999,0.0473178476095199,-0.00030517578125,0.10004830442876143
0.044,0.0473076477646827,0.00030517578125,0.09908973545634188
0.0444999999999999,0.0472976267337799,0.0006103515625,0.0982629692026921
0.045,0.0472873635590076,0.00030517578125,0.09727509051414841
0.0454999999999999,0.0472775883972644,0.00030517578125,0.09661567546098504
0.046,0.047267735004425,0.0006103515625,0.09586099397084623
0.0464999999999999,0.0472574867308139,0.0006103515625,0.09484157161278975
0.047,0.0472476333379745,0.0006103515625,0.09410410576341165
0.0474999999999999,0.0472373440861702,0.0006103515625,0.09307504859063648
0.048,0.0472275838255882,0.0006103515625,0.09241097626447195
0.0484999999999999,0.0472169294953346,0.0006103515625,0.09116649412870725
0.049,0.0472070798277854,0.00030517578125,0.09050006234549818
0.0494999999999999,0.0471972674131393,0.0006103515625,0.08981863183256704
0.05,0.0471868179738521,0.0006103515625,0.08872289879563665
0.0504999999999999,0.0471768602728843,0.0006103515625,0.08797904095287812
0.051,0.0471668876707553,-0.00030517578125,0.08720857321994757
0.0514999999999999,0.047156274318695,0.0006103515625,0.08604927437270012
0.052,0.0471465662121772,0.00091552734375,0.08549811892635063
0.0524999999999999,0.0471363887190818,0.00030517578125,0.08461411286725279
0.053,0.0471264719963073,0.0006103515625,0.08389924583151755
0.0534999999999999,0.0471163019537925,0.0,0.08301959831410999
0.054,0.0471060462296009,0.00030517578125,0.08210816708426703
0.0544999999999999,0.0470965579152107,0.0006103515625,0.08166346073213814
0.055,0.0470861196517944,0.00030517578125,0.08059976273815321
0.0554999999999999,0.0470756515860557,0.00030517578125,0.07957794756124613
0.056,0.0470659397542476,0.0006103515625,0.07903596533587752
0.0564999999999999,0.0470556244254112,0.00030517578125,0.07810264632552759
0.057,0.0470456108450889,0.0006103515625,0.07737240430076903
0.0574999999999999,0.0470357462763786,-0.00030517578125,0.07671518056810943
0.058,0.0470259487628936,0.00030517578125,0.07607291557014789
0.0584999999999999,0.0470155775547027,0.001220703125,0.07509061940803113
0.059,0.0470051318407058,0.001220703125,0.07411392277047711
0.0595,0.0469952300190925,0.0006103515625,0.07347925388834896
0.06,0.0469851568341255,0.00030517578125,0.07272604640834895
0.0605,0.0469749718904495,0.00030517578125,0.07191261522706754
0.061,0.0469650477170944,0.0006103515625,0.07125452691387317
0.0615,0.0469548925757408,0.0006103515625,0.07045551344873226
0.062,0.0469448007643222,0.0006103515625,0.0697031336389467
0.0625,0.0469350554049015,0.0006103515625,0.0691412069896954
0.0629999999999999,0.0469245351850986,0.00030517578125,0.068133702191732
0.0635,0.0469145141541957,0.0006103515625,0.06744614608869157
0.0639999999999999,0.0469042956829071,0.00030517578125,0.06664757488804832
0.0645,0.0468945391476154,-0.00030517578125,0.06610677519384238
0.0649999999999999,0.0468842945992946,0.00030517578125,0.06527759460051369
0.0655,0.0468740798532962,0.0006103515625,0.06448685661857917
0.0659999999999999,0.0468641817569732,0.0006103515625,0.0638761119313143
0.0665,0.0468536615371704,-0.00030517578125,0.06292738163681821
0.0669999999999999,0.0468440987169742,0.00030517578125,0.06251603044736764
0.0675,0.0468341261148452,0.0006103515625,0.06184431447605087
0.0679999999999999,0.0468238219618797,0.00091552734375,0.061001778938295295
0.0685,0.046813741326332,0.0,0.06030175322434571
0.0689999999999999,0.0468034595251083,0.00030517578125,0.059504374299295476
0.0695,0.0467936396598815,0.0006103515625,0.058959869525825576
0.0699999999999999,0.0467830523848533,0.0006103515625,0.05801099167169558
0.0705,0.0467735342681407,0.00030517578125,0.057638193352316
0.0709999999999999,0.0467635169625282,0.0006103515625,0.05696707621227686
0.0715,0.0467530339956283,0.00030517578125,0.05607173020614612
0.0719999999999999,0.0467430986464023,0.0006103515625,0.05548506528480234
0.0725,0.0467329435050487,0.00091552734375,0.054779921153910026
0.0729999999999999,0.0467229299247264,0.0006103515625,0.054152495537994276
0.0735,0.0467127487063407,0.00030517578125,0.05344232262321155
0.0739999999999999,0.0467025153338909,0.0006103515625,0.052719346045084776
0.0745,0.0466931350529193,0.00091552734375,0.05241416036500658
0.0749999999999999,0.0466824695467948,0.00030517578125,0.05144834930369519
0.0755,0.0466724932193756,0.00030517578125,0.050861883051126926
0.0759999999999999,0.0466623976826667,0.0,0.05021315644076339
0.0765,0.0466519556939601,0.00030517578125,0.049408875884259455
0.0769999999999999,0.0466422103345394,0.00030517578125,0.048955057053196395
0.0775,0.0466318577527999,0.00030517578125,0.04819725737018133
0.0779999999999999,0.0466220527887344,0.0,0.04771208262625186
0.0785,0.0466117449104785,0.00091552734375,0.046981246351101506
0.0789999999999999,0.046601440757513,0.0006103515625,0.04627343924539594
0.0795,0.0465917848050594,0.0,0.045871211384168706
0.0799999999999999,0.0465813167393207,0.00030517578125,0.045078364093794995
0.0805,0.0465712659060955,0.00030517578125,0.044500936873456506
0.0809999999999999,0.0465612933039665,0.00030517578125,0.043955849382637045
0.0815,0.046551413834095,0.00030517578125,0.04344552595939162
0.0819999999999999,0.046541154384613,-0.00030517578125,0.0427605340978694
0.0825,0.0465308092534542,0.0006103515625,0.04205614098324055
0.0829999999999999,0.0465209856629371,0.00091552734375,0.04159451156010326
0.0835,0.0465108379721641,0.0,0.040979713975276215
0.0839999999999999,0.0465007163584232,0.0,0.04038404128820782
0.0845,0.0464909933507442,0.0,0.039960305332410725
0.0849999999999999,0.0464807860553264,0.0006103515625,0.039315719585337944
0.0855,0.0464706532657146,0.0006103515625,0.038717007933510135
0.0859999999999999,0.0464603714644908,0.0,0.03806549911802616
0.0865,0.046450387686491,-0.00030517578125,0.03755022093615193
0.0869999999999999,0.0464406944811344,0.00091552734375,0.03714871562384837
0.0875,0.0464303158223629,0.0006103515625,0.03645332533899019
0.0879999999999999,0.0464205183088779,0.0006103515625,0.036013938615746165
0.0885,0.0464102365076541,0.00030517578125,0.03537123102599886
0.0889999999999999,0.0464000180363655,0.0006103515625,0.03477126320459488
0.0895,0.0463902465999126,0.00030517578125,0.03435752016186662
0.0899999999999999,0.0463796108961105,0.00030517578125,0.03359553865904155
0.0905,0.0463700965046882,0.00030517578125,0.03329854903481422
0.0909999999999999,0.0463599301874637,0.00030517578125,0.032723543172938505
0.0915,0.0463497228920459,0.00091552734375,0.03214341530777671
0.0919999999999999,0.0463399775326252,0.00030517578125,0.031748229006199405
0.0925,0.0463295355439186,0.0006103515625,0.03108021652245718
0.0929999999999999,0.0463197715580463,0.00030517578125,0.03068750396484639
0.0935,0.0463094785809516,-0.00030517578125,0.030088644454397215
0.0939999999999999,0.0462993308901786,0.0006103515625,0.02955882289880733
0.0945,0.0462896078824996,0.00030517578125,0.029189424161614852
0.0949999999999999,0.0462790951132774,0.0006103515625,0.02852350970842792
0.0955,0.0462691038846969,0.00030517578125,0.02806851001968986
0.0959999999999999,0.0462590903043746,0.0,0.027604183916933103
0.0965,0.0462488867342472,0.00030517578125,0.027073975213974092
0.0969999999999999,0.046238973736763,0.0006103515625,0.026653823506980878
0.0975,0.0462291799485683,0.00030517578125,0.026270429399746154
0.0979999999999999,0.0462190434336662,0.00030517578125,0.025761955739861727
0.0985,0.0462087281048297,0.0006103515625,0.025202002187423203
0.0989999999999999,0.0461984761059284,0.0,0.02467867409338086
0.0995,0.0461886003613472,0.00030517578125,0.024290991260234363
0.0999999999999999,0.0461780205368995,0.00030517578125,0.023666848169549688
0.1005,0.0461683571338653,0.0,0.02336407907261735
0.1009999999999999,0.0461582317948341,0.0006103515625,0.022897384008498174
0.1015,0.0461482778191566,0.0006103515625,0.022491479705735104
0.1019999999999999,0.0461379587650299,0.00030517578125,0.021968941548199696
0.1025,0.0461278222501277,0.0,0.021516553010404702
0.1029999999999999,0.0461180955171585,0.00030517578125,0.02119656464540927
0.1035,0.046107679605484,-0.00030517578125,0.020655307738934016
0.1039999999999999,0.0460976138710975,0.00030517578125,0.020237526749649057
0.1045,0.0460879951715469,0.0,0.019957004318603262
0.1049999999999999,0.0460776649415493,0.0006103515625,0.019451234682573742
0.1055,0.0460675358772277,0.0006103515625,0.01901889124624823
0.1059999999999999,0.0460574552416801,0.0006103515625,0.018606496714839247
0.1065,0.0460474714636802,0.0,0.018225936115379454
0.1069999999999999,0.0460374318063259,0.0,0.017830163731769336
0.1075,0.0460271760821342,0.00030517578125,0.017376333485980406
0.1079999999999999,0.046017188578844,0.0006103515625,0.017007495593089214
0.1085,0.0460070967674255,0.0006103515625,0.01661088863512675
0.1089999999999999,0.0459967479109764,0.0006103515625,0.016148502849117806
0.1095,0.0459869913756847,0.0006103515625,0.01585808514499823
0.1099999999999999,0.045976635068655,0.0006103515625,0.015401113763161943
0.1105,0.0459666848182678,0.001220703125,0.015063330342900062
0.1109999999999999,0.0459567494690418,0.0006103515625,0.014729218289720061
0.1115,0.0459464117884635,0.0006103515625,0.01429133996798747
0.1119999999999999,0.0459365248680114,0.0,0.01397955926635356
0.1125,0.0459262989461422,0.00030517578125,0.013581239749134636
0.1129999999999999,0.0459159612655639,0.0006103515625,0.013163295432154866
0.1135,0.0459060631692409,0.0,0.01286294527476395
0.1139999999999999,0.0458960719406604,0.00030517578125,0.012538712696459977
0.1145,0.0458859913051128,0.00030517578125,0.012194831655148263
0.1149999999999999,0.0458757989108562,0.00030517578125,0.011828662539412492
0.1155,0.0458655878901481,0.0006103515625,0.011464655028506208
0.1159999999999999,0.0458558909595012,0.00030517578125,0.011225049381271252
0.1165,0.0458452329039573,0.0,0.010763904704271375
0.1169999999999999,0.0458351448178291,0.00030517578125,0.010446693348097325
0.1175,0.0458251163363456,0.0006103515625,0.01014576923563871
0.118,0.0458150133490562,0.0006103515625,0.009831045454409826
0.1185,0.0458052121102809,0.0,0.009584490473055941
0.119,0.0457945987582206,0.00030517578125,0.009166371654403507
0.1195,0.0457850061357021,0.0006103515625,0.008972425121089601
0.12,0.0457745566964149,0.0006103515625,0.00859913023163412
0.1205,0.0457645840942859,0.00030517578125,0.008331724877502656
0.121,0.0457545667886734,0.0006103515625,0.008057202108185238
0.1215,0.0457443334162235,0.0006103515625,0.007743920651259005
0.122,0.0457345135509967,0.00030517578125,0.007515365251458946
0.1225,0.045724269002676,0.00030517578125,0.007207384898444108
0.123,0.0457145497202873,0.00030517578125,0.007002109800656483
0.1235,0.0457044467329978,0.0006103515625,0.006726508162730947
0.124,0.0456937700510025,0.00030517578125,0.006355656054697021
0.1245,0.0456842556595802,0.00030517578125,0.006197940298844876
0.125,0.0456740334630012,0.0006103515625,0.005916248484573733
0.1254999999999999,0.0456638559699058,-0.00030517578125,0.005648761440883977
0.126,0.0456539317965507,0.00030517578125,0.005428000529294811
0.1264999999999999,0.0456438660621643,0.0,0.005186999013951408
0.127,0.0456339232623577,0.0,0.004969335429862302
0.1274999999999999,0.0456234142184257,0.0006103515625,0.004669190153402086
0.128,0.0456137172877788,0.0,0.0044989494125471366
0.1284999999999999,0.0456037893891334,0.0,0.004295041523310052
0.129,0.0455933958292007,0.0006103515625,0.0040287996569550585
0.1294999999999999,0.0455835871398448,0.0006103515625,0.0038511959457486877
0.13,0.0455733314156532,0.00030517578125,0.0036156973624123026
0.1304999999999999,0.0455631241202354,0.0006103515625,0.003393717773909006
0.131,0.0455530621111393,0.00030517578125,0.003196344391473059
0.1314999999999999,0.0455429218709468,0.0006103515625,0.002994187590959948
0.132,0.0455331392586231,0.0006103515625,0.002839571194170996
0.1324999999999999,0.0455227419734001,0.00030517578125,0.002616967234689273
0.133,0.0455128215253353,0.00091552734375,0.002455358717829415
0.1334999999999999,0.0455030314624309,0.00030517578125,0.002311031499395184
0.134,0.0454924702644348,0.00030517578125,0.0020904291976623288
0.1344999999999999,0.0454824157059192,0.0006103515625,0.0019300208777432595
0.135,0.0454725362360477,0.00030517578125,0.00179111386939656
0.1354999999999999,0.0454621240496635,0.0006103515625,0.0016081395073615382
0.136,0.0454522147774696,0.00030517578125,0.0014771077799435694
0.1364999999999999,0.0454418361186981,0.00030517578125,0.0013121773229471086
0.137,0.045432262122631,0.0,0.0012178567219486517
0.1374999999999999,0.0454218164086341,0.00091552734375,0.0010611759570321353
0.138,0.0454116091132164,0.00030517578125,0.0009308055691964634
0.1384999999999999,0.045401707291603,0.0006103515625,0.0008274462182351273
0.139,0.0453913807868957,0.0,0.0007036445335994092
0.1394999999999999,0.0453815460205078,0.00030517578125,0.0006159305077785201
0.14,0.0453708879649639,0.00030517578125,0.0004914068578539393
0.1404999999999999,0.0453611426055431,0.00030517578125,0.0004210296874829079
0.141,0.0453514568507671,0.00030517578125,0.0003574925084184712
0.1414999999999999,0.0453411415219306,0.00030517578125,0.00027438097383433686
0.142,0.0453312955796718,0.00030517578125,0.00021672593071373286
0.1424999999999999,0.0453208535909652,0.00030517578125,0.00014844950318957528
0.143,0.0453112311661243,0.00091552734375,0.00011100131271586152
0.1434999999999999,0.0453007407486438,0.0006103515625,6.216373832026526e-05
0.144,0.0452904850244522,0.00030517578125,2.9874380070816544e-05
0.1444999999999999,0.0452807918190956,0.0006103515625,1.327170638044249e-05
0.145,0.0452706553041935,0.0,1.6579256604178246e-06
0.1454999999999999,0.0452604703605175,0.00030517578125,0.0
0.146,0.0452502332627773,0.0006103515625,0.0
0.1464999999999999,0.0452400669455528,0.00030517578125,0.0
0.147,0.0452302284538745,0.00030517578125,0.0
0.1474999999999999,0.0452201105654239,-0.00030517578125,0.0
0.148,0.0452101603150367,0.00030517578125,0.0
0.1484999999999999,0.0451997518539428,0.00030517578125,0.0
0.149,0.04518948122859,0.00030517578125,0.0
0.1494999999999999,0.0451798066496849,0.00030517578125,0.0
0.15,0.0451695062220096,0.00091552734375,0.0
0.1504999999999999,0.045159425586462,0.00030517578125,0.0
0.151,0.0451494865119457,0.00030517578125,0.0
0.1514999999999999,0.0451396033167839,0.0,0.0
