time [s],Lmtc [m],STIM [ ],Fsee [N]
0.0,0.0480148643255233,0.0006103515625,0.22157910523193278
0.0004999999999999,0.048014722764492,0.0006103515625,0.22143027686505534
0.001,0.04801482334733,0.0006103515625,0.22153833701836062
0.0014999999999999,0.0480146147310733,0.0006103515625,0.22132318719794236
0.002,0.0480144843459129,0.0,0.22120087669468425
0.0024999999999999,0.0480149462819099,0.00030517578125,0.2216937882800287
0.003,0.0480146780610084,0.00091552734375,0.22141017902215487
0.0034999999999999,0.0480147711932659,0.0006103515625,0.22151144646148543
0.004,0.0480147525668144,0.0,0.22149214448211982
0.0044999999999999,0.0480146259069442,0.0006103515625,0.22136231338369178
0.005,0.0480149649083614,0.00091552734375,0.22171981626273243
0.0054999999999999,0.0480145364999771,0.00030517578125,0.22126925632878697
0.006,0.048014797270298,0.00030517578125,0.221550770273464
0.0064999999999999,0.0480144470930099,0.00030517578125,0.22119068188158167
0.007,0.0480137094855308,0.0006103515625,0.22045543486084243
0.0074999999999999,0.0480135269463062,0.00030517578125,0.2203339366927515
0.008,0.0480116344988346,0.0006103515625,0.21847573054508673
0.0084999999999999,0.0480087809264659,0.00030517578125,0.2157749205106673
0.009,0.0480036288499832,0.00030517578125,0.2109683742866971
0.0094999999999999,0.0479966737329959,0.00091552734375,0.20479888968084353
0.01,0.0479871779680252,0.00030517578125,0.19678705309399755
0.0104999999999999,0.0479755997657775,0.00030517578125,0.18778744501343042
0.011,0.0479624047875404,0.00030517578125,0.17863924985315224
0.0114999999999999,0.0479476265609264,0.0006103515625,0.16977458290608657
0.012,0.0479311794042587,0.0006103515625,0.1615957982178759
0.0124999999999999,0.0479142405092716,0.00030517578125,0.15531823296343275
0.013,0.0478969886898994,0.00030517578125,0.15074573768527444
0.0134999999999999,0.0478789024055004,0.0,0.14696784436783294
0.014,0.0478605516254901,0.0,0.14400923402070961
0.0144999999999999,0.0478420667350292,0.0,0.14151870928330582
0.015,0.0478243008255958,0.001220703125,0.1397549858650666
0.0154999999999999,0.0478060506284236,0.0006103515625,0.13760143015914333
0.016,0.04778803139925,0.00030517578125,0.13569657697921164
0.0164999999999999,0.047770407050848,0.0006103515625,0.13402572230801052
0.017,0.0477528944611549,0.0,0.1323140229660397
0.0174999999999999,0.0477352738380432,0.0006103515625,0.1304645145603552
0.018,0.0477176345884799,0.00030517578125,0.12860906643661874
0.0184999999999999,0.0477001368999481,0.001220703125,0.12685046261220959
0.019,0.0476830527186393,0.00030517578125,0.12532599435862826
0.0194999999999999,0.0476652830839157,0.00030517578125,0.12326224103017946
0.02,0.0476480573415756,0.00030517578125,0.12165925034381699
0.0204999999999999,0.0476307608187198,0.00091552734375,0.11994523068809487
0.021,0.0476130805909633,0.0,0.11799327847013627
0.0214999999999999,0.0475956611335277,0.0,0.11629499861189731
0.022,0.0475783720612525,0.0006103515625,0.11465885040640424
0.0224999999999999,0.0475609973073005,0.0006103515625,0.11294178422502502
0.023,0.0475433841347694,0.0006103515625,0.11110196035524715
0.0234999999999999,0.0475257113575935,0.00030517578125,0.1092901131291599
0.024,0.0475087687373161,0.0006103515625,0.10796348686495837
0.0244999999999999,0.0474907532334327,0.00030517578125,0.10586829273634464
0.025,0.0474736094474792,0.0006103515625,0.10445979084851262
0.0254999999999999,0.0474561192095279,0.00030517578125,0.10275255886530528
0.026,0.047438770532608,0.00030517578125,0.10116147696350725
0.0264999999999999,0.0474212057888507,0.0006103515625,0.09943905740547732
0.027,0.0474033840000629,0.0006103515625,0.09762243473756169
0.0274999999999999,0.0473863407969474,0.0006103515625,0.0963264896877744
0.028,0.0473688021302223,-0.00030517578125,0.09464088948557205
0.0284999999999999,0.0473509989678859,0.0006103515625,0.09286161406655931
0.029,0.0473340861499309,0.00030517578125,0.09164905373432082
0.0294999999999999,0.0473163649439811,0.001220703125,0.0898629884175938
0.03,0.0472993031144142,0.0006103515625,0.08853616523974475
0.0304999999999999,0.0472815819084644,0.00030517578125,0.08678061435746322
0.031,0.047264140099287,0.00091552734375,0.08526937102782822
0.0314999999999999,0.0472471639513969,0.00091552734375,0.08400629006866124
0.032,0.0472290143370628,0.00030517578125,0.08205158293850803
0.0324999999999999,0.047211792320013,0.0006103515625,0.08076579553946435
0.033,0.0471945330500602,0.00030517578125,0.07938495412402798
0.0334999999999999,0.0471770241856575,0.00030517578125,0.07785031381670873
0.034,0.0471597723662853,0.00030517578125,0.07648415094524917
0.0344999999999999,0.0471422038972377,0.0006103515625,0.07493692989053645
0.035,0.0471249483525753,0.0006103515625,0.0735978575835977
0.0354999999999999,0.0471072122454643,0.00030517578125,0.07199751388677157
0.036,0.0470897555351257,0.00030517578125,0.07060899689217326
0.0364999999999999,0.0470726005733013,0.0,0.06936877447464099
0.037,0.0470551624894142,0.0006103515625,0.06794750709646699
0.0374999999999999,0.0470376908779144,0.00030517578125,0.06653556289123003
0.038,0.0470199771225452,0.0006103515625,0.06503303240990814
0.0384999999999999,0.0470028296113014,0.0006103515625,0.06385723873822768
0.039,0.0469852350652217,0.00030517578125,0.06242213174254018
0.0394999999999999,0.0469677858054637,0.0006103515625,0.061099443644203506
0.04,0.0469505712389946,0.00091552734375,0.05989288796793465
0.0404999999999999,0.0469329170882701,0.00030517578125,0.05846003331589375
0.041,0.0469155013561248,-0.00030517578125,0.05718836090815271
0.0414999999999999,0.0468983352184295,0.00030517578125,0.05603165593674613
0.042,0.0468805134296417,0.00030517578125,0.054556129519860275
0.0424999999999999,0.0468634255230426,0.0006103515625,0.05348238649841954
0.043,0.046845968812704,0.00030517578125,0.052199451520828874
0.0434999999999999,0.0468285754323005,0.00030517578125,0.0509683953905324
0.044,0.0468112751841545,0.0,0.04978808941741366
0.0444999999999999,0.0467938147485256,0.00030517578125,0.048539390994821165
0.045,0.0467763878405094,0.0006103515625,0.04733035582933096
0.0454999999999999,0.0467587299644947,0.0006103515625,0.04604133729256282
0.046,0.0467415563762187,0.0,0.044991573356064025
0.0464999999999999,0.0467240177094936,0.0006103515625,0.043767214785964376
0.047,0.0467063523828983,0.00030517578125,0.04252254664907889
0.0474999999999999,0.0466892383992672,0.0,0.04153449919321301
0.048,0.0466718114912509,0.0006103515625,0.04039221621145712
0.0484999999999999,0.0466541461646556,0.00091552734375,0.03917470381196104
0.049,0.0466367527842521,0.00030517578125,0.03810158462780636
0.0494999999999999,0.0466191470623016,0.0006103515625,0.03695104541519881
0.05,0.0466017462313175,0.0006103515625,0.03590462348488099
0.0504999999999999,0.0465840473771095,0.0,0.03475061095747461
0.051,0.0465665683150291,0.00030517578125,0.03370882047935828
0.0514999999999999,0.0465496405959129,0.0006103515625,0.032870772617927146
0.052,0.0465321317315101,0.0006103515625,0.03178529017605435
0.0524999999999999,0.0465149879455566,0.0006103515625,0.03085432541204799
0.053,0.0464974828064441,0.00030517578125,0.029790496861509332
0.0534999999999999,0.0464798808097839,0.0006103515625,0.028722084603379047
0.054,0.0464624315500259,0.00030517578125,0.02773563404970547
0.0544999999999999,0.0464449226856231,0.00030517578125,0.026743041792355805
0.055,0.0464277155697345,0.0006103515625,0.025865556822860937
0.0554999999999999,0.0464099831879138,0.0006103515625,0.024814419856025338
0.056,0.0463930107653141,0.00030517578125,0.02403693216024397
0.0564999999999999,0.0463758967816829,0.00030517578125,0.023191676571041105
0.057,0.0463579259812831,0.0006103515625,0.022085593460157243
0.0574999999999999,0.0463408567011356,0.0006103515625,0.021306098715428257
0.058,0.0463234409689903,0.00091552734375,0.02041288727924961
0.0584999999999999,0.0463058277964592,0.0006103515625,0.01947971703883032
0.059,0.0462884604930877,0.0006103515625,0.018642644678455167
0.0595,0.0462710224092006,0.0006103515625,0.017795449253671814
0.06,0.0462535545229911,0.0006103515625,0.01695472956449039
0.0605,0.0462362691760063,0.00030517578125,0.016177785368795813
0.061,0.0462188087403774,0.00030517578125,0.01536153220842713
0.0615,0.0462016761302948,0.00030517578125,0.014644078510403072
0.062,0.0461836084723472,0.00030517578125,0.01369937421428396
0.0625,0.0461665280163288,0.0006103515625,0.013037619683302712
0.0629999999999999,0.0461488775908947,0.0006103515625,0.01223907935410946
0.0635,0.0461315102875232,0.00030517578125,0.011529275148218467
0.0639999999999999,0.0461143068969249,0.00091552734375,0.010865857687768472
0.0645,0.0460966899991035,0.0006103515625,0.010120237173762318
0.0649999999999999,0.0460795424878597,0.0006103515625,0.009494695300514996
0.0655,0.0460621602833271,0.0006103515625,0.008827405447752418
0.0659999999999999,0.0460448116064071,0.0006103515625,0.008182725257219548
0.0665,0.0460274182260036,0.0006103515625,0.007545154083730062
0.0669999999999999,0.0460095703601837,0.0006103515625,0.00684519917955969
0.0675,0.0459925234317779,0.0006103515625,0.006313527283632812
0.0679999999999999,0.0459750071167945,0.00030517578125,0.005712047904561388
0.0685,0.0459571555256843,0.00030517578125,0.005082152280747319
0.0689999999999999,0.0459398888051509,0.00091552734375,0.004569624830350256
0.0695,0.0459227040410041,0.00091552734375,0.004083771576278537
0.0699999999999999,0.0459052138030529,0.00030517578125,0.0035737981570232807
0.0705,0.0458875335752964,0.0,0.003066313033670869
0.0709999999999999,0.0458702147006988,0.00030517578125,0.002630133778562584
0.0715,0.0458531379699707,0.001220703125,0.002242044626007339
0.0719999999999999,0.0458353050053119,0.00091552734375,0.0018030893995555084
0.0725,0.0458179824054241,0.0006103515625,0.0014471324548493082
0.0729999999999999,0.0458002462983131,0.0006103515625,0.0010911308745282036
0.0735,0.0457829535007476,0.00030517578125,0.0008056763504028226
0.0739999999999999,0.0457657054066658,0.0006103515625,0.0005582395806388348
0.0745,0.0457485057413578,0.00091552734375,0.0003516336619416483
0.0749999999999999,0.0457311123609542,0.0006103515625,0.00018162046141668092
0.0755,0.0457132272422313,0.00030517578125,5.558091366143374e-05
0.0759999999999999,0.0456960499286651,0.0006103515625,4.034135303220233e-06
0.0765,0.0456787459552288,0.00030517578125,0.0
0.0769999999999999,0.0456611402332782,0.0006103515625,0.0
0.0775,0.0456439554691314,0.00030517578125,0.0
0.0779999999999999,0.0456263571977615,0.00030517578125,0.0
0.0785,0.0456090681254863,0.00030517578125,0.0
0.0789999999999999,0.0455914139747619,0.00091552734375,0.0
0.0795,0.0455740615725517,0.001220703125,0.0
0.0799999999999999,0.0455566756427288,0.00030517578125,0.0
0.0805,0.0455390885472297,0.00030517578125,0.0
0.0809999999999999,0.0455217659473419,0.00091552734375,0.0
0.0815,0.045504592359066,0.00030517578125,0.0
0.0819999999999999,0.0454866178333759,0.00091552734375,0.0
0.0825,0.0454696379601955,0.00091552734375,0.0
0.0829999999999999,0.0454520098865032,0.0,0.0
0.0835,0.0454347021877765,0.0006103515625,0.0
0.0839999999999999,0.0454171672463417,0.0006103515625,0.0
0.0845,0.0453995466232299,0.0006103515625,0.0
0.0849999999999999,0.0453824624419212,0.0006103515625,0.0
0.0855,0.0453647151589393,0.00030517578125,0.0
0.0859999999999999,0.04534712433815,0.00030517578125,0.0
0.0865,0.04533002525568,0.0006103515625,0.0
0.0869999999999999,0.0453125722706317,0.00030517578125,0.0
0.0875,0.0452952273190021,0.00030517578125,0.0
0.0879999999999999,0.0452779866755008,0.00030517578125,0.0
0.0885,0.0452602989971637,0.0,0.0
0.0889999999999999,0.0452430360019207,0.00030517578125,0.0
0.0895,0.0452255196869373,0.00091552734375,0.0
0.0899999999999999,0.0452079698443412,0.00030517578125,0.0
0.0905,0.0451905615627765,0.00091552734375,0.0
0.0909999999999999,0.0451732464134693,0.0,0.0
0.0915,0.045155793428421,0.00091552734375,0.0
0.0919999999999999,0.0451380647718906,0.00030517578125,0.0
0.0925,0.0451209880411624,0.0006103515625,0.0
0.0929999999999999,0.0451031140983104,0.001220703125,0.0
0.0935,0.0450857877731323,0.0,0.0
0.0939999999999999,0.0450684875249862,0.0,0.0
0.0945,0.0450508594512939,0.0006103515625,0.0
0.0949999999999999,0.0450335517525672,0.0006103515625,0.0
0.0955,0.0450155884027481,0.00030517578125,0.0
0.0959999999999999,0.0449984222650527,0.0,0.0
0.0965,0.0449812039732933,0.0006103515625,0.0
0.0969999999999999,0.0449636243283748,0.001220703125,0.0
0.0975,0.0449465960264205,0.00091552734375,0.0
0.0979999999999999,0.044929064810276,0.00030517578125,0.0
0.0985,0.0449116192758083,0.0006103515625,0.0
0.0989999999999999,0.0448942445218563,-0.00030517578125,0.0
0.0995,0.0448768474161624,0.0006103515625,0.0
0.0999999999999999,0.04485934227705,0.00091552734375,0.0
0.1005,0.044842030853033,0.00030517578125,0.0
0.1009999999999999,0.0448248349130153,0.0006103515625,0.0
0.1015,0.0448076017200946,0.00030517578125,0.0
0.1019999999999999,0.0447894297540187,-0.00030517578125,0.0
0.1025,0.0447724275290966,0.001220703125,0.0
0.1029999999999999,0.0447550863027572,0.0006103515625,0.0
0.1035,0.0447374954819679,0.00091552734375,0.0
0.1039999999999999,0.0447202436625957,0.0006103515625,0.0
0.1045,0.0447026118636131,0.00030517578125,0.0
0.1049999999999999,0.0446854047477245,0.0006103515625,0.0
0.1055,0.0446677692234516,0.0006103515625,0.0
0.1059999999999999,0.0446507036685943,0.001220703125,0.0
0.1065,0.0446330569684505,0.00091552734375,0.0
0.1069999999999999,0.044615302234888,0.0006103515625,0.0
0.1075,0.0445983298122882,0.0006103515625,0.0
0.1079999999999999,0.0445807166397571,0.00091552734375,0.0
0.1085,0.0445632301270961,0.0,0.0
0.1089999999999999,0.0445458889007568,0.0006103515625,0.0
0.1095,0.0445284806191921,0.00091552734375,0.0
0.1099999999999999,0.0445113591849803,0.00030517578125,0.0
0.1105,0.0444936975836753,0.0006103515625,0.0
0.1109999999999999,0.0444763526320457,0.0,0.0
0.1115,0.0444590523838996,0.0006103515625,0.0
0.1119999999999999,0.0444414541125297,0.00030517578125,0.0
0.1125,0.0444241240620613,0.0006103515625,0.0
0.1129999999999999,0.0444065704941749,0.0006103515625,0.0
0.1135,0.04438928514719,0.00091552734375,0.0
0.1139999999999999,0.0443716272711753,0.0006103515625,0.0
0.1145,0.044354360550642,0.00030517578125,0.0
0.1149999999999999,0.0443370193243026,0.00030517578125,0.0
0.1155,0.0443191900849342,0.00030517578125,0.0
0.1159999999999999,0.0443020686507225,-0.00030517578125,0.0
0.1165,0.044284775853157,0.00091552734375,0.0
0.1169999999999999,0.044267076998949,0.0006103515625,0.0
0.1175,0.0442495122551918,0.00091552734375,0.0
0.118,0.0442323051393032,0.00091552734375,0.0
0.1185,0.0442146584391593,0.0,0.0
0.119,0.0441971570253372,0.00030517578125,0.0
0.1195,0.0441799201071262,0.0,0.0
0.12,0.0441625751554966,0.0006103515625,0.0
0.1205,0.0441448837518692,0.00030517578125,0.0
0.121,0.0441279672086238,0.00091552734375,0.0
0.1215,0.0441104806959629,0.0,0.0
0.122,0.0440926812589168,0.00030517578125,0.0
0.1225,0.0440756976604461,0.0006103515625,0.0
0.123,0.0440580323338508,0.00030517578125,0.0
0.1235,0.0440405830740928,0.0006103515625,0.0
0.124,0.0440232455730438,0.0006103515625,0.0
0.1245,0.0440057665109634,0.0006103515625,0.0
0.125,0.0439885035157203,0.001220703125,0.0
0.1254999999999999,0.043970875442028,0.0006103515625,0.0
0.126,0.0439539290964603,0.0006103515625,0.0
0.1264999999999999,0.0439361333847045,0.00030517578125,0.0
0.127,0.0439186915755271,0.0,0.0
0.1274999999999999,0.0439015440642833,0.0006103515625,0.0
0.128,0.0438837818801403,0.00030517578125,0.0
0.1284999999999999,0.0438664592802524,0.00030517578125,0.0
0.129,0.0438490249216556,0.0006103515625,0.0
0.1294999999999999,0.0438317582011222,0.0006103515625,0.0
0.13,0.0438142046332359,0.0006103515625,0.0
0.1304999999999999,0.0437965169548988,0.0006103515625,0.0
0.131,0.0437793172895908,0.0006103515625,0.0
0.1314999999999999,0.0437619090080261,0.0006103515625,0.0
0.132,0.0437442325055599,0.0,0.0
0.1324999999999999,0.0437267124652862,0.0006103515625,0.0
0.133,0.0437096655368804,0.00030517578125,0.0
0.1334999999999999,0.0436922162771225,0.00030517578125,0.0
0.134,0.0436746813356876,0.0006103515625,0.0
0.1344999999999999,0.0436573438346385,0.00030517578125,0.0
0.135,0.0436400547623634,0.0006103515625,0.0
0.1354999999999999,0.0436225458979606,0.0,0.0
0.136,0.0436052270233631,0.0006103515625,0.0
0.1364999999999999,0.0435877479612827,0.0,0.0
0.137,0.0435701757669448,0.0,0.0
0.1374999999999999,0.0435528680682182,0.00030517578125,0.0
0.138,0.043535079807043,0.00030517578125,0.0
0.1384999999999999,0.0435176268219947,0.00030517578125,0.0
0.139,0.0435005314648151,0.00030517578125,0.0
0.1394999999999999,0.043482843786478,0.0,0.0
0.14,0.0434657223522663,0.00091552734375,0.0
0.1404999999999999,0.0434477515518665,0.00030517578125,0.0
0.141,0.0434303469955921,0.0006103515625,0.0
0.1414999999999999,0.0434130132198333,0.00030517578125,0.0
0.142,0.04339549690485,0.0006103515625,0.0
0.1424999999999999,0.0433784946799278,0.00030517578125,0.0
0.143,0.043360810726881,0.0006103515625,0.0
0.1434999999999999,0.043343897908926,0.00030517578125,0.0
0.144,0.0433261133730411,0.00030517578125,0.0
0.1444999999999999,0.0433086119592189,0.00030517578125,0.0
0.145,0.0432914048433303,0.00030517578125,0.0
0.1454999999999999,0.0432737246155738,0.00030517578125,0.0
0.146,0.0432566851377487,0.0,0.0
0.1464999999999999,0.0432390943169593,0.0,0.0
0.147,0.0432217381894588,0.0006103515625,0.0
0.1474999999999999,0.0432045310735702,0.00030517578125,0.0
0.148,0.0431872121989727,0.0006103515625,0.0
0.1484999999999999,0.0431695431470871,0.00030517578125,0.0
0.149,0.0431519895792007,0.00030517578125,0.0
0.1494999999999999,0.0431346707046031,0.00091552734375,0.0
0.15,0.043117381632328,0.00091552734375,0.0
0.1504999999999999,0.0430997125804424,0.0006103515625,0.0
0.151,0.0430824942886829,0.0006103515625,0.0
0.1514999999999999,0.0430648438632488,0.00091552734375,0.0
0.152,0.0430476069450378,0.00030517578125,0.0
0.1524999999999999,0.0430305562913417,0.00091552734375,0.0
0.153,0.0430126637220382,0.00091552734375,0.0
0.1534999999999999,0.0429951921105384,0.0,0.0
0.154,0.0429777763783931,0.0006103515625,0.0
0.1544999999999999,0.0429606400430202,0.00091552734375,0.0
0.155,0.0429429896175861,0.00030517578125,0.0
0.1554999999999999,0.0429254285991191,0.00091552734375,0.0
0.156,0.042908426374197,0.00091552734375,0.0
0.1564999999999999,0.0428907722234725,0.0006103515625,0.0
0.157,0.0428735055029392,0.00030517578125,0.0
0.1574999999999999,0.042856078594923,0.0006103515625,0.0
0.158,0.0428385064005851,0.0006103515625,0.0
0.1584999999999999,0.0428212210536003,0.00091552734375,0.0
0.159,0.0428035706281662,0.0006103515625,0.0
0.1594999999999999,0.042786207050085,0.00030517578125,0.0
0.16,0.0427688583731651,0.0006103515625,0.0
0.1604999999999999,0.0427510552108287,0.00030517578125,0.0
0.161,0.0427337475121021,0.0,0.0
0.1614999999999999,0.0427163392305374,0.0,0.0
0.162,0.0426988378167152,0.00091552734375,0.0
0.1624999999999999,0.0426816456019878,0.00030517578125,0.0
0.163,0.0426641404628753,-0.00030517578125,0.0
0.1634999999999999,0.0426466949284076,0.0006103515625,0.0
0.164,0.0426290184259414,-0.00030517578125,0.0
0.1644999999999999,0.0426118001341819,0.0,0.0
0.165,0.0425944291055202,0.0006103515625,0.0
0.1654999999999999,0.0425768792629241,0.00030517578125,0.0
0.166,0.0425598435103893,0.00030517578125,0.0
0.1664999999999999,0.0425422601401805,0.0006103515625,0.0
0.167,0.0425250381231308,0.00030517578125,0.0
0.1674999999999999,0.0425072908401489,0.00030517578125,0.0
0.168,0.0424896739423275,0.00091552734375,0.0
0.1684999999999999,0.0424722507596015,0.0,0.0
0.169,0.0424549058079719,0.0006103515625,0.0
0.1694999999999999,0.0424376688897609,0.0006103515625,0.0
0.17,0.0424201302230358,0.00030517578125,0.0
0.1704999999999999,0.0424027219414711,0.0006103515625,0.0
0.171,0.0423855558037757,0.00030517578125,0.0
0.1714999999999999,0.042367935180664,0.00091552734375,0.0
0.172,0.0423506908118724,0.00091552734375,0.0
0.1725,0.0423332639038562,0.0,0.0
0.173,0.0423156395554542,0.00030517578125,0.0
0.1735,0.0422983467578887,0.0006103515625,0.0
