time [s],Lmtc [m],STIM [ ],Fsee [N]
0.0,0.0480149984359741,0.0006103515625,0.22159336366609966
0.0004999999999999,0.0480148456990718,0.00030517578125,0.2214329585137509
0.001,0.0480149611830711,0.0006103515625,0.22155699872728138
0.0014999999999999,0.0480150170624256,0.00030517578125,0.2216141143890804
0.002,0.0480147115886211,0.00030517578125,0.22129614301884024
0.0024999999999999,0.0480149053037166,-0.00030517578125,0.22150853357412492
0.003,0.0480146668851375,0.0006103515625,0.22126532536258264
0.0034999999999999,0.0480151064693927,0.0006103515625,0.22173265010530524
0.004,0.0480148345232009,0.00030517578125,0.2214442843879158
0.0044999999999999,0.0480147488415241,0.0,0.22136088226967623
0.005,0.0480148717761039,0.0006103515625,0.22149628137868688
0.0054999999999999,0.0480148419737815,0.00030517578125,0.22146733069791072
0.006,0.0480147898197174,0.0,0.2214171243844839
0.0064999999999999,0.0480151213705539,0.00091552734375,0.22176498924251134
0.007,0.0480151064693927,0.00030517578125,0.22174210970338784
0.0074999999999999,0.048015046864748,0.0006103515625,0.22167365587143226
0.008,0.0480148829519748,0.00030517578125,0.22149904093575573
0.0084999999999999,0.048015009611845,0.00030517578125,0.22163149443507854
0.009,0.0480149649083614,0.0006103515625,0.22158177028428433
0.0094999999999999,0.0480144396424293,0.00091552734375,0.2210407364380106
0.01,0.0480141192674636,0.0006103515625,0.22074178808659578
0.0104999999999999,0.0480120591819286,0.0006103515625,0.21869105594727067
0.011,0.0480091162025928,0.00030517578125,0.2158821309235165
0.0114999999999999,0.0480043441057205,0.00030517578125,0.21145132720457474
0.012,0.0479978919029235,0.0006103515625,0.20572468409082725
0.0124999999999999,0.0479897372424602,0.0006103515625,0.19889769099895396
0.013,0.0479802452027797,0.0006103515625,0.1915524039819746
0.0134999999999999,0.0479694195091724,0.0006103515625,0.18393434805565476
0.014,0.0479578673839569,0.0006103515625,0.17682304055583972
0.0144999999999999,0.0479457378387451,0.00030517578125,0.17048583540183662
0.015,0.0479331314563751,0.00030517578125,0.16504314346857077
0.0154999999999999,0.0479200258851051,0.00030517578125,0.16043892529509862
0.016,0.0479071736335754,0.00091552734375,0.15711613351584178
0.0164999999999999,0.0478943176567554,0.00030517578125,0.15451187760542287
0.017,0.0478811040520668,0.0,0.15212662345914638
0.0174999999999999,0.0478682443499565,0.0006103515625,0.1503797932893494
0.018,0.0478555411100387,0.0006103515625,0.14889227151723397
0.0184999999999999,0.0478424206376075,0.0006103515625,0.14715622753141258
0.019,0.0478299707174301,0.00030517578125,0.14602932638632588
0.0194999999999999,0.0478169694542884,0.00030517578125,0.14442598984405308
0.02,0.0478046797215938,0.0006103515625,0.14341078022343604
0.0204999999999999,0.0477920807898044,0.00030517578125,0.1420603764766248
0.021,0.0477795414626598,0.0006103515625,0.14075918087858885
0.0214999999999999,0.0477673970162868,0.00030517578125,0.1397247057866337
0.022,0.0477546639740467,0.0006103515625,0.1381867709540154
0.0224999999999999,0.0477420017123222,0.00091552734375,0.13678059936815734
0.023,0.047729704529047,0.0006103515625,0.13566206573745576
0.0234999999999999,0.0477173179388046,0.0006103515625,0.1344215997493422
0.024,0.0477049313485622,0.00030517578125,0.1331680436182376
0.0244999999999999,0.0476922914385795,0.0006103515625,0.13173632268958396
0.025,0.04768006503582,0.0006103515625,0.13064122453547775
0.0254999999999999,0.0476674698293209,0.00030517578125,0.12924298234532622
0.026,0.0476549975574016,0.0,0.127976754491202
0.0264999999999999,0.0476428642868995,0.0006103515625,0.12694442517613047
0.027,0.0476299971342086,0.00030517578125,0.12535323993551875
0.0274999999999999,0.0476175583899021,0.00030517578125,0.12416013743983353
0.028,0.0476054251194,0.0006103515625,0.12315443320590418
0.0284999999999999,0.0475928969681263,0.0006103515625,0.12181747415103761
0.029,0.0475807227194309,0.0006103515625,0.12075382095234234
0.0294999999999999,0.0475678220391273,0.00091552734375,0.11916901086885087
0.03,0.0475557371973991,0.00030517578125,0.1182392281624477
0.0304999999999999,0.0475433841347694,0.00091552734375,0.11705207429518033
0.031,0.047530461102724,0.00030517578125,0.11549657655686209
0.0314999999999999,0.0475185215473175,0.00091552734375,0.11468872856963491
0.032,0.0475056022405624,0.0,0.11313326609917948
0.0324999999999999,0.0474933944642543,0.0,0.11215095594879217
0.033,0.0474807061254978,0.00091552734375,0.11080260068768359
0.0334999999999999,0.0474687442183494,0.00091552734375,0.10996790107584206
0.034,0.0474562980234622,0.00030517578125,0.10872765787664199
0.0344999999999999,0.0474433898925781,0.00030517578125,0.10722984597056776
0.035,0.0474311038851738,0.0006103515625,0.10622835038724308
0.0354999999999999,0.047418437898159,0.00030517578125,0.10494719607415186
0.036,0.0474058613181114,0.0006103515625,0.10376462832795055
0.0364999999999999,0.0473936349153518,0.00030517578125,0.10281067651813787
0.037,0.0473808944225311,0.00030517578125,0.10148910536271598
0.0374999999999999,0.0473688729107379,0.0006103515625,0.10066407214157766
0.038,0.0473563820123672,0.0006103515625,0.09946799797549896
0.0384999999999999,0.0473436117172241,0.00030517578125,0.09813147201268728
0.039,0.0473314858973026,0.0006103515625,0.09725235646930865
0.0394999999999999,0.0473185218870639,0.00030517578125,0.09580742517056243
0.04,0.0473065450787544,0.00030517578125,0.09505433404432245
0.0404999999999999,0.0472940802574157,0.00030517578125,0.09391710916946792
0.041,0.0472815744578838,0.0,0.09277458989341529
0.0414999999999999,0.0472695156931877,0.0006103515625,0.09191739262439048
0.042,0.0472566485404968,0.00030517578125,0.09052978042695467
0.0424999999999999,0.0472444370388984,0.00030517578125,0.0896168386006504
0.043,0.0472318641841411,0.0006103515625,0.08845528487042738
0.0434999999999999,0.0472193993628025,0.0006103515625,0.0873878175656783
0.044,0.0472071096301078,0.0,0.0864280808026333
0.0444999999999999,0.0471946410834789,0.0,0.08534531329923642
0.045,0.0471824817359447,0.00030517578125,0.08445387525383168
0.0454999999999999,0.0471694767475128,0.00030517578125,0.08305172913771638
0.046,0.0471573732793331,0.00030517578125,0.08226094469403575
0.0464999999999999,0.0471451058983802,0.00030517578125,0.08131935787188914
0.047,0.0471324957907199,0.0006103515625,0.08017154511040543
0.0474999999999999,0.0471200086176395,0.0,0.07913201994016747
0.048,0.0471076071262359,0.0006103515625,0.07815212361836948
0.0484999999999999,0.047095026820898,0.0006103515625,0.07707232517958057
0.049,0.0470827557146549,0.00091552734375,0.07618641582274874
0.0494999999999999,0.0470703095197677,0.00030517578125,0.07518243307448731
0.05,0.047058030962944,0.00030517578125,0.07427830409696452
0.0504999999999999,0.0470455661416053,0.0006103515625,0.07326074441194645
0.051,0.0470332205295562,0.0,0.0723232240446175
0.0514999999999999,0.0470207296311855,0.00030517578125,0.07130689172584176
0.052,0.047008316963911,0.0,0.07035066578417572
0.0524999999999999,0.0469959266483783,0.00030517578125,0.06941111730928104
0.053,0.04698346555233,0.00091552734375,0.06843718945218444
0.0534999999999999,0.046971071511507,0.0006103515625,0.06751085659498496
0.054,0.046958465129137,0.00030517578125,0.06647755214630673
0.0544999999999999,0.0469458177685737,0.0006103515625,0.06545191701245948
0.055,0.0469335094094276,0.00030517578125,0.06462570908495516
0.0554999999999999,0.0469208434224128,0.00030517578125,0.0635994193984638
0.056,0.0469087734818458,0.00091552734375,0.06290178087064699
0.0564999999999999,0.0468966737389564,0.00030517578125,0.06214422094309258
0.057,0.0468841679394245,0.00091552734375,0.06115721564063727
0.0574999999999999,0.0468713082373142,0.0006103515625,0.06002482616355267
0.058,0.0468588843941688,0.00030517578125,0.059166260412693086
0.0584999999999999,0.0468466058373451,0.00030517578125,0.05837478371937772
0.059,0.0468341298401355,0.00030517578125,0.05747234358013578
0.0595,0.0468216389417648,0.00091552734375,0.05657377746062092
0.06,0.0468093566596508,0.00030517578125,0.055785834809499335
0.0605,0.0467966422438621,0.00091552734375,0.054782985732994866
0.061,0.0467842407524585,0.00030517578125,0.053964227476407646
0.0615,0.0467719212174415,0.00091552734375,0.053181306753591846
0.062,0.0467591658234596,0.0006103515625,0.05218822886538498
0.0625,0.0467472113668918,0.00091552734375,0.05159982426999223
0.0629999999999999,0.0467345155775547,0.0006103515625,0.050625246113654584
0.0635,0.0467221103608608,0.0006103515625,0.04981963042985732
0.0639999999999999,0.0467094853520393,0.0006103515625,0.04891689669285553
0.0645,0.0466969944536685,0.0006103515625,0.04809570259927678
0.0649999999999999,0.0466848611831665,0.00030517578125,0.04743926315771854
0.0655,0.0466722100973129,0.0,0.04653058529044124
0.0659999999999999,0.0466598272323608,0.0006103515625,0.04576686330698067
0.0665,0.0466476380825042,0.0006103515625,0.045085978694851904
0.0669999999999999,0.0466349832713604,0.00030517578125,0.04418911945230576
0.0675,0.0466226264834404,0.0006103515625,0.04344878332326412
0.0679999999999999,0.0466097965836524,0.0006103515625,0.04250733620560016
0.0685,0.0465972088277339,0.0006103515625,0.04170448471762835
0.0689999999999999,0.0465853027999401,0.0006103515625,0.04119624829755059
0.0695,0.0465723723173141,0.00030517578125,0.04022291693448825
0.0699999999999999,0.0465604439377784,0.0006103515625,0.03970691757028226
0.0705,0.0465477779507637,0.00030517578125,0.03885390115086949
0.0709999999999999,0.0465353801846504,0.00030517578125,0.038135944314835
0.0715,0.0465229339897632,0.00030517578125,0.037401460167295855
0.0719999999999999,0.0465102456510067,0.00091552734375,0.03657832111132846
0.0725,0.0464982651174068,-0.00030517578125,0.03605457842308667
0.0729999999999999,0.0464858300983905,0.0006103515625,0.03532432018449331
0.0735,0.0464733876287937,0.00030517578125,0.03460150818139298
0.0739999999999999,0.0464608296751976,0.00030517578125,0.03384405009715191
0.0745,0.046448491513729,0.001220703125,0.03318483662501565
0.0749999999999999,0.0464363098144531,0.00091552734375,0.03258358160170296
0.0755,0.046423565596342,0.0006103515625,0.03176596317950037
0.0759999999999999,0.0464111343026161,0.0006103515625,0.031093045810419186
0.0765,0.0463988371193409,0.00091552734375,0.03047363666981509
0.0769999999999999,0.0463863275945186,0.0006103515625,0.02977516543970747
0.0775,0.0463740564882755,0.00030517578125,0.02917307335763454
0.0779999999999999,0.0463615953922271,0.00030517578125,0.028500634299716342
0.0785,0.046349324285984,0.00030517578125,0.027903545468019493
0.0789999999999999,0.046337004750967,0.0006103515625,0.027287678448900166
0.0795,0.0463241711258888,0.00030517578125,0.026498787304046766
0.0799999999999999,0.0463123805820941,0.00091552734375,0.02609262073232079
0.0805,0.0462994538247585,0.00091552734375,0.02527920364681862
0.0809999999999999,0.0462869368493557,0.00030517578125,0.024638301878892578
0.0815,0.0462748147547245,0.00030517578125,0.024135206194452995
0.0819999999999999,0.0462622046470642,0.0,0.023464316164556104
0.0825,0.0462498851120471,0.0006103515625,0.02290278029272839
0.0829999999999999,0.0462371371686458,0.00030517578125,0.022207499286469062
0.0835,0.04622508212924,0.0006103515625,0.02174827609771041
0.0839999999999999,0.0462126284837722,0.0006103515625,0.021153759320873804
0.0845,0.0461996830999851,0.0,0.02041967033157522
0.0849999999999999,0.0461876541376113,0.0006103515625,0.019988734278958815
0.0855,0.0461746379733085,0.00030517578125,0.01925391298460653
0.0859999999999999,0.0461625196039676,0.00030517578125,0.018810874932592415
0.0865,0.0461502932012081,0.00030517578125,0.018326659003886726
0.0869999999999999,0.0461378097534179,0.00030517578125,0.017766843311468074
0.0875,0.0461257137358188,0.0,0.01732384088415776
0.0879999999999999,0.0461130738258361,0.0006103515625,0.016724762502128347
0.0885,0.0461005792021751,0.0006103515625,0.016181414677867954
0.0889999999999999,0.0460881255567073,0.00091552734375,0.01565827549665919
0.0895,0.0460756197571754,0.0006103515625,0.015128961567895095
0.0899999999999999,0.0460630506277084,0.00030517578125,0.014592491026259792
0.0905,0.046050738543272,0.0006103515625,0.014131581407692308
0.0909999999999999,0.0460385382175445,0.0006103515625,0.013700047826320597
0.0915,0.0460261330008506,0.00030517578125,0.013217493222140417
0.0919999999999999,0.0460132099688053,0.00030517578125,0.012616921679859583
0.0925,0.0460011400282382,0.00030517578125,0.01224047639060329
0.0929999999999999,0.0459884628653526,0.00030517578125,0.011717438305827792
0.0935,0.0459760427474975,0.00030517578125,0.011267191035986479
0.0939999999999999,0.0459636934101581,0.001220703125,0.010838529619582309
0.0945,0.0459509901702404,0.0006103515625,0.010336528507923463
0.0949999999999999,0.0459387451410293,0.0006103515625,0.009946907772465617
0.0955,0.0459261201322078,0.00030517578125,0.009478506742535406
0.0959999999999999,0.0459139645099639,0.0006103515625,0.009118237717187951
0.0965,0.0459016226232051,0.0006103515625,0.008720084157264555
0.0969999999999999,0.0458888597786426,0.00030517578125,0.008244291957816091
0.0975,0.0458767414093017,0.0006103515625,0.00790754968235083
0.0979999999999999,0.0458639077842235,0.0006103515625,0.007436489335461791
0.0985,0.0458514243364334,0.00030517578125,0.007046110870686408
0.0989999999999999,0.0458388440310955,0.00030517578125,0.0066466393941288235
0.0995,0.0458262972533702,0.00030517578125,0.0062629650144101524
0.0999999999999999,0.0458141602575778,0.0006103515625,0.005957034680169431
0.1005,0.0458011589944362,0.00091552734375,0.005511877813654918
0.1009999999999999,0.0457893647253513,0.0,0.005275378273609477
0.1015,0.0457765944302082,0.0006103515625,0.004884972651264036
0.1019999999999999,0.0457640886306762,0.00030517578125,0.004548279554851428
0.1025,0.0457517281174659,0.00030517578125,0.004241424400060961
0.1029999999999999,0.0457393527030944,0.00091552734375,0.003939354937601894
0.1035,0.0457272455096244,0.00030517578125,0.0036803444209140296
0.1039999999999999,0.0457143448293209,0.00030517578125,0.0033239632028152144
0.1045,0.0457022003829479,0.0006103515625,0.00307651567154682
0.1049999999999999,0.0456897355616092,0.00030517578125,0.0027965194917403675
0.1055,0.045677077025175,0.00030517578125,0.0025055956661498087
0.1059999999999999,0.0456646494567394,-0.00030517578125,0.0022525095483276205
0.1065,0.0456524230539798,0.0006103515625,0.002029527231097297
0.1069999999999999,0.0456400886178016,0.0006103515625,0.0018041564865746175
0.1075,0.0456275977194309,0.00030517578125,0.0015750011278196406
0.1079999999999999,0.04561498016119,0.0006103515625,0.0013482889269446528
0.1085,0.0456028766930103,0.0,0.0011752975559966932
0.1089999999999999,0.0455903187394142,-0.00030517578125,0.000978919123355996
0.1095,0.0455776788294315,0.0,0.000792836984718196
0.1099999999999999,0.0455655418336391,0.0006103515625,0.0006522157780131749
0.1105,0.0455530546605587,0.0,0.0005048993733319879
0.1109999999999999,0.0455405823886394,0.0006103515625,0.0003748655068266622
0.1115,0.0455280467867851,0.0006103515625,0.00025990452762420814
0.1119999999999999,0.0455157496035099,0.0006103515625,0.0001711651733904654
0.1125,0.0455031916499137,0.0006103515625,9.374302405629415e-05
0.1129999999999999,0.0454906970262527,0.00030517578125,3.941386334017661e-05
0.1135,0.0454783849418163,0.00030517578125,8.989441416767157e-06
0.1139999999999999,0.0454659648239612,0.0,0.0
0.1145,0.0454535670578479,0.0006103515625,0.0
0.1149999999999999,0.045441448688507,0.00030517578125,0.0
0.1155,0.0454283878207206,0.00091552734375,0.0
0.1159999999999999,0.0454159937798976,0.00030517578125,0.0
0.1165,0.0454037338495254,0.00030517578125,0.0
0.1169999999999999,0.0453912243247032,0.00030517578125,0.0
0.1175,0.0453788451850414,0.0006103515625,0.0
0.118,0.0453663729131221,0.0006103515625,0.0
0.1185,0.0453538000583648,0.0,0.0
0.119,0.0453413538634777,0.00030517578125,0.0
0.1195,0.0453291870653629,0.0,0.0
0.12,0.0453168861567974,0.00091552734375,0.0
0.1205,0.0453041680157184,0.0006103515625,0.0
0.121,0.0452918745577335,0.0,0.0
0.1215,0.045278999954462,0.00030517578125,0.0
0.122,0.0452667661011219,0.0006103515625,0.0
0.1225,0.0452545210719108,0.0006103515625,0.0
0.123,0.0452417582273483,0.0006103515625,0.0
0.1235,0.0452295169234275,0.0006103515625,0.0
0.124,0.0452167876064777,0.0,0.0
0.1245,0.0452044866979122,0.00030517578125,0.0
0.125,0.0451920926570892,0.0,0.0
0.1254999999999999,0.0451796054840087,0.00091552734375,0.0
0.126,0.0451677776873111,0.0006103515625,0.0
0.1264999999999999,0.0451549440622329,0.00091552734375,0.0
0.127,0.045142326503992,0.00030517578125,0.0
0.1274999999999999,0.0451298952102661,0.0006103515625,0.0
0.128,0.0451174266636371,0.0006103515625,0.0
0.1284999999999999,0.0451052598655223,0.0006103515625,0.0
0.129,0.0450921468436718,0.0,0.0
0.1294999999999999,0.0450801774859428,0.0006103515625,0.0
0.13,0.0450678393244743,0.00030517578125,0.0
0.1304999999999999,0.0450547412037849,0.0006103515625,0.0
0.131,0.0450425967574119,0.0006103515625,0.0
0.1314999999999999,0.0450300499796867,0.0006103515625,0.0
0.132,0.0450174733996391,0.0006103515625,0.0
0.1324999999999999,0.0450051613152027,0.0006103515625,0.0
0.133,0.0449926182627677,0.0006103515625,0.0
0.1334999999999999,0.044980451464653,0.00030517578125,0.0
0.134,0.0449678264558315,0.0006103515625,0.0
0.1344999999999999,0.044955626130104,0.0006103515625,0.0
0.135,0.0449432469904422,0.00091552734375,0.0
0.1354999999999999,0.0449307896196842,0.00030517578125,0.0
0.136,0.0449186973273754,0.0,0.0
0.1364999999999999,0.0449059754610061,0.0006103515625,0.0
0.137,0.0448935367166996,0.00030517578125,0.0
0.1374999999999999,0.044881235808134,0.00091552734375,0.0
0.138,0.0448686517775058,0.00030517578125,0.0
0.1384999999999999,0.0448566600680351,0.0006103515625,0.0
0.139,0.0448438599705696,0.0006103515625,0.0
0.1394999999999999,0.0448315925896167,0.0006103515625,0.0
0.14,0.0448190905153751,0.0006103515625,0.0
0.1404999999999999,0.0448064245283603,0.00091552734375,0.0
0.141,0.0447943434119224,0.0,0.0
0.1414999999999999,0.0447816103696823,0.00030517578125,0.0
0.142,0.0447692759335041,0.00030517578125,0.0
0.1424999999999999,0.0447571687400341,0.0006103515625,0.0
0.143,0.0447445623576641,0.00091552734375,0.0
0.1434999999999999,0.0447322763502597,0.0006103515625,0.0
0.144,0.0447197295725345,0.0006103515625,0.0
0.1444999999999999,0.044707428663969,0.00030517578125,0.0
0.145,0.0446947515010833,0.0006103515625,0.0
0.1454999999999999,0.0446823388338089,0.0,0.0
0.146,0.0446701385080814,0.00030517578125,0.0
0.1464999999999999,0.0446574911475181,0.00030517578125,0.0
0.147,0.044645182788372,0.00030517578125,0.0
0.1474999999999999,0.0446324869990348,0.0,0.0
0.148,0.0446200370788574,0.0006103515625,0.0
0.1484999999999999,0.0446078553795814,0.00091552734375,0.0
0.149,0.0445954874157905,0.00091552734375,0.0
0.1494999999999999,0.0445832125842571,0.0,0.0
0.15,0.0445705391466617,0.0006103515625,0.0
0.1504999999999999,0.0445577688515186,0.0006103515625,0.0
0.151,0.0445458963513374,0.00030517578125,0.0
0.1514999999999999,0.0445332340896129,0.0006103515625,0.0
0.152,0.0445206947624683,0.00091552734375,0.0
0.1524999999999999,0.0445083864033222,0.0006103515625,0.0
0.153,0.044495977461338,0.00030517578125,0.0
0.1534999999999999,0.0444834046065807,0.00091552734375,0.0
0.154,0.0444710440933704,0.0,0.0
0.1544999999999999,0.0444586873054504,0.00030517578125,0.0
0.155,0.0444462336599826,0.00030517578125,0.0
0.1554999999999999,0.0444338768720626,0.0006103515625,0.0
0.156,0.0444214083254337,0.00030517578125,0.0
0.1564999999999999,0.0444089919328689,-0.00030517578125,0.0
0.157,0.0443965606391429,0.00030517578125,0.0
0.1574999999999999,0.0443839058279991,0.0006103515625,0.0
0.158,0.0443713366985321,0.0,0.0
0.1584999999999999,0.0443589314818382,0.00030517578125,0.0
0.159,0.0443467497825622,0.0006103515625,0.0
0.1594999999999999,0.0443342551589012,0.0006103515625,0.0
0.16,0.0443219617009162,0.0006103515625,0.0
0.1604999999999999,0.0443091131746768,0.00030517578125,0.0
