time [s],Lmtc [m],STIM [ ],Fsee [N]
0.0,0.048014797270298,0.00030517578125,0.22157197626079342
0.0004999999999999,0.0480147823691368,0.0,0.2215545025702433
0.001,0.048014760017395,0.00030517578125,0.2215298074567327
0.0014999999999999,0.0480147078633308,0.0006103515625,0.2214746974653956
0.002,0.0480148792266845,0.0,0.2216536933249642
0.0024999999999999,0.0480149500072002,0.0006103515625,0.22172305442871754
0.003,0.0480147525668144,0.00030517578125,0.22151135994574117
0.0034999999999999,0.0480147339403629,0.00030517578125,0.22149165652444192
0.004,0.048014972358942,0.00091552734375,0.22173987595825967
0.0044999999999999,0.0480151399970054,0.00030517578125,0.2219075041791026
0.005,0.0480148866772651,0.0006103515625,0.22163212998132006
0.0054999999999999,0.0480144508183002,0.0006103515625,0.22117755365434968
0.006,0.0480147823691368,0.00091552734375,0.22153680383892255
0.0064999999999999,0.0480142794549465,0.0,0.22102003441183254
0.007,0.048014149069786,0.00030517578125,0.2209155217108687
0.0074999999999999,0.0480132177472114,0.0,0.22000077916157992
0.008,0.0480116233229637,0.001220703125,0.21846720403124084
0.0084999999999999,0.0480083227157592,0.00091552734375,0.215316728263726
0.009,0.0480029322206974,0.0006103515625,0.21031021826225343
0.0094999999999999,0.0479958765208721,0.00030517578125,0.20410269917266066
0.01,0.0479862242937088,0.00030517578125,0.19601792883304758
0.0104999999999999,0.0479747131466865,0.00091552734375,0.18717941158898546
0.011,0.0479618236422538,0.0006103515625,0.1783935336654515
0.0114999999999999,0.047947458922863,0.00030517578125,0.16991564294819628
0.012,0.0479319728910923,0.0006103515625,0.16242266875426253
0.0124999999999999,0.0479160398244857,0.00091552734375,0.1565755616506475
0.013,0.0478993393480777,0.00030517578125,0.1518851505456805
0.0134999999999999,0.0478823892772197,0.00030517578125,0.1483878046172279
0.014,0.0478654094040393,0.0006103515625,0.14571853485754654
0.0144999999999999,0.047848667949438,0.0006103515625,0.14363552411606711
0.015,0.0478316619992256,0.00091552734375,0.14153681602279378
0.0154999999999999,0.0478146746754646,0.0,0.13958996288443085
0.016,0.0477980785071849,0.0006103515625,0.1379510757426679
0.0164999999999999,0.0477816127240657,0.0,0.1363248449658765
0.017,0.0477650500833988,0.0006103515625,0.13457046635470718
0.0174999999999999,0.0477487556636333,0.00030517578125,0.13299152723183594
0.018,0.0477323085069656,0.0006103515625,0.1312460103303245
0.0184999999999999,0.0477161929011344,-0.00030517578125,0.12972628769731978
0.019,0.0477000027894973,0.00030517578125,0.1280939614305524
0.0194999999999999,0.0476833470165729,0.0006103515625,0.12614755166847594
0.02,0.047667633742094,0.0006103515625,0.12491446978276839
0.0204999999999999,0.0476509667932987,0.0006103515625,0.1229066663082817
0.021,0.0476348884403705,0.00030517578125,0.12142370953033294
0.0214999999999999,0.0476184077560901,0.00030517578125,0.11963137722327868
0.022,0.0476019978523254,0.00030517578125,0.11794962544003273
0.0224999999999999,0.0475861206650733,0.0006103515625,0.11661947395968118
0.023,0.0475694686174392,0.0,0.11471139140035738
0.0234999999999999,0.0475533902645111,0.0006103515625,0.11328363981912536
0.024,0.0475372932851314,0.00030517578125,0.11177820697770348
0.0244999999999999,0.0475210957229137,0.00091552734375,0.11018975954922117
0.025,0.0475048199295997,0.00030517578125,0.10857538547666233
0.0254999999999999,0.047488372772932,0.00030517578125,0.10689009392321691
0.026,0.0474722310900688,0.0006103515625,0.10544001873806788
0.0264999999999999,0.0474560484290123,0.00091552734375,0.10393502812426368
0.027,0.0474392622709274,0.00030517578125,0.10207744411395647
0.0274999999999999,0.0474233888089656,0.00030517578125,0.10088326516911413
0.028,0.0474070273339748,0.0006103515625,0.09928804695661862
0.0284999999999999,0.0473908111453056,0.00091552734375,0.09781987335579352
0.029,0.0473745353519916,0.00152587890625,0.09631567501212826
0.0294999999999999,0.0473582446575164,0.001220703125,0.09481818323300009
0.03,0.0473423935472965,0.0006103515625,0.09358523861289977
0.0304999999999999,0.0473257154226303,0.0006103515625,0.09181375968411684
0.031,0.0473096221685409,0.00091552734375,0.0904908793908852
0.0314999999999999,0.0472935661673545,0.00091552734375,0.08914978392858042
0.032,0.0472769327461719,0.00030517578125,0.08746684227361752
0.0324999999999999,0.0472612716257572,0.00030517578125,0.08641655827807634
0.033,0.0472444668412208,0.0006103515625,0.08462411859673864
0.0334999999999999,0.0472288466989994,0.00091552734375,0.0836185657752824
0.034,0.0472121946513652,0.0006103515625,0.0819353539546816
0.0344999999999999,0.0471959821879863,0.0006103515625,0.08060268547352216
0.035,0.047180064022541,0.0006103515625,0.07941836262628336
0.0354999999999999,0.0471633151173591,0.00030517578125,0.07774624422551792
0.036,0.0471476502716541,0.0006103515625,0.07675575446482905
0.0364999999999999,0.0471308641135692,0.00030517578125,0.07507345493991566
0.037,0.0471146889030933,0.0,0.07383023179578997
0.0374999999999999,0.0470985732972621,0.00091552734375,0.07259558413520908
0.038,0.0470821149647235,0.00030517578125,0.07116938920034756
0.0384999999999999,0.0470661707222461,0.00030517578125,0.07004944680738862
0.039,0.0470499768853187,0.0006103515625,0.06875764328006591
0.0394999999999999,0.04703364148736,0.0006103515625,0.06740934936790109
0.04,0.0470173731446266,0.0006103515625,0.0661297184083636
0.0404999999999999,0.0470008477568626,0.0006103515625,0.06473958208902778
0.041,0.0469848960638046,0.00030517578125,0.06367493829136701
0.0414999999999999,0.046968538314104,0.00030517578125,0.06236678456283652
0.042,0.0469523482024669,0.0006103515625,0.061168717928694515
0.0424999999999999,0.0469364710152149,0.0006103515625,0.06011856703561813
0.043,0.0469198450446128,0.00091552734375,0.058680186702521196
0.0434999999999999,0.046903982758522,-0.00030517578125,0.05767742821973718
0.044,0.0468877665698528,0.0,0.0564660839150085
0.0444999999999999,0.0468712411820888,0.001220703125,0.05513421156049079
0.045,0.0468551814556121,0.00030517578125,0.05406861576058834
0.0454999999999999,0.0468387007713317,-0.00030517578125,0.05279524385991224
0.046,0.0468226335942745,0.0006103515625,0.05174838085926181
0.0464999999999999,0.0468062981963157,0.00030517578125,0.05056490682240006
0.047,0.0467898920178413,0.0006103515625,0.04937314310097206
0.0474999999999999,0.0467741005122661,0.0,0.04847353978982422
0.048,0.0467575900256633,0.00091552734375,0.04721872844774605
0.0484999999999999,0.0467414930462837,0.0,0.04619142064997598
0.049,0.0467252396047115,0.0006103515625,0.045091121880128746
0.0494999999999999,0.046708844602108,0.0006103515625,0.043947710648978594
0.05,0.0466926358640193,0.0006103515625,0.0429107586217418
0.0504999999999999,0.0466759279370307,0.00030517578125,0.04167539825769751
0.051,0.0466599389910697,0.0006103515625,0.04078175421633523
0.0514999999999999,0.0466438457369804,0.00091552734375,0.039815684720831516
0.052,0.0466274209320545,0.00091552734375,0.038713617019898595
0.0524999999999999,0.0466113202273845,0.0006103515625,0.03776778447137821
0.053,0.0465946979820728,0.0006103515625,0.03661712807865888
0.0534999999999999,0.046578474342823,0.0006103515625,0.03566465200203857
0.054,0.0465620309114456,0.0,0.034629343357008194
0.0544999999999999,0.046545922756195,0.0006103515625,0.033739659403036255
0.055,0.0465302728116512,0.00030517578125,0.03300591291942302
0.0554999999999999,0.0465137660503387,0.00091552734375,0.031920384039446394
0.056,0.0464977845549583,0.0006103515625,0.031065664691822474
0.0564999999999999,0.0464813411235809,0.00030517578125,0.0300407442108236
0.057,0.0464651025831699,0.0,0.029119200829391293
0.0574999999999999,0.0464492551982402,0.00091552734375,0.028342214947606102
0.058,0.0464326739311218,0.00091552734375,0.02730171213799274
0.0584999999999999,0.0464165322482585,0.00030517578125,0.026450587216073625
0.059,0.046400211751461,0.0,0.025544333566520992
0.0595,0.0463839843869209,0.00030517578125,0.024685609868283557
0.06,0.0463681295514106,0.0006103515625,0.023954264619021323
0.0605,0.0463515110313892,0.00030517578125,0.022970791296832382
0.061,0.0463355109095573,0.00030517578125,0.022217083525761846
0.0615,0.0463192015886306,0.0006103515625,0.021365147430105032
0.062,0.0463032126426696,0.0,0.020625089567584905
0.0625,0.0462871007621288,0.00030517578125,0.019846613817666232
0.0629999999999999,0.0462702773511409,0.0006103515625,0.018874169441573045
0.0635,0.0462543591856956,0.0006103515625,0.018202816650572464
0.0639999999999999,0.0462379716336727,0.0,0.017393609083636498
0.0645,0.0462218709290027,0.00030517578125,0.016681492582752543
0.0649999999999999,0.0462057366967201,0.0006103515625,0.015964496004936678
0.0655,0.0461893156170845,0.0006103515625,0.01518102560017215
0.0659999999999999,0.0461732074618339,0.00030517578125,0.014498206464279247
0.0665,0.0461568161845207,0.0,0.013751393352663106
0.0669999999999999,0.0461404286324977,0.00030517578125,0.013025300415733907
0.0675,0.046124167740345,0.00030517578125,0.012346832426692546
0.0679999999999999,0.0461081527173519,0.0006103515625,0.011736216392967779
0.0685,0.0460915230214595,-0.0006103515625,0.010991629189935714
0.0689999999999999,0.0460757166147232,0.00030517578125,0.010452273553015808
0.0695,0.0460594110190868,0.00030517578125,0.009803086226479412
0.0699999999999999,0.0460434034466743,0.00030517578125,0.009231412058887941
0.0705,0.0460267849266529,0.00030517578125,0.008545266140074849
0.0709999999999999,0.0460109040141105,0.0,0.008027273472020398
0.0715,0.0459946356713771,0.00091552734375,0.007440102525224173
0.0719999999999999,0.0459778159856796,0.00030517578125,0.006772200390998638
0.0725,0.0459621474146842,0.0006103515625,0.006332917135601233
0.0729999999999999,0.0459456145763397,0.0006103515625,0.005750444901627882
0.0735,0.0459293834865093,0.0006103515625,0.005239979592481398
0.0739999999999999,0.0459132567048072,0.0,0.004760928897253295
0.0745,0.0458970218896865,0.0006103515625,0.004280659066645173
0.0749999999999999,0.0458808504045009,0.00030517578125,0.0038269942476909665
0.0755,0.0458641313016414,0.0006103515625,0.0033217553170578817
0.0759999999999999,0.0458481311798095,0.0006103515625,0.0029322146038157785
0.0765,0.0458319224417209,0.00091552734375,0.002534436442066299
0.0769999999999999,0.0458153448998928,0.0,0.002120523499179487
0.0775,0.0457995273172855,0.001220703125,0.0018076355836640124
0.0779999999999999,0.0457831174135208,0.00030517578125,0.0014604640412734383
0.0785,0.0457669682800769,0.00030517578125,0.0011633464636232717
0.0789999999999999,0.0457505621016025,0.00091552734375,0.0008762386069877466
0.0795,0.0457345098257064,0.00030517578125,0.0006436782589695448
0.0799999999999999,0.0457182563841342,0.00091552734375,0.0004318707437697428
0.0805,0.0457017496228218,0.00030517578125,0.0002486709623150807
0.0809999999999999,0.0456856451928615,0.00030517578125,0.00012218453390115222
0.0815,0.0456696934998035,0.00030517578125,4.016205947219018e-05
0.0819999999999999,0.0456535145640373,0.0006103515625,1.3947675643236746e-06
0.0825,0.0456374920904636,0.0006103515625,0.0
0.0829999999999999,0.0456208735704422,0.0006103515625,0.0
0.0835,0.0456050001084804,0.00030517578125,0.0
0.0839999999999999,0.045588418841362,0.0,0.0
0.0845,0.045572068542242,0.0006103515625,0.0
0.0849999999999999,0.0455562248826026,0.00030517578125,0.0
0.0855,0.0455394051969051,0.00030517578125,0.0
0.0859999999999999,0.0455238111317157,0.00030517578125,0.0
0.0865,0.0455073378980159,0.00030517578125,0.0
0.0869999999999999,0.0454908944666385,0.00030517578125,0.0
0.0875,0.0454750172793865,0.00091552734375,0.0
0.0879999999999999,0.0454585887491703,0.00030517578125,0.0
0.0885,0.0454425625503063,0.0,0.0
0.0889999999999999,0.0454261116683483,0.0006103515625,0.0
0.0895,0.0454096160829067,0.0,0.0
0.0899999999999999,0.0453932508826255,0.00030517578125,0.0
0.0905,0.0453769825398922,0.00030517578125,0.0
0.0909999999999999,0.0453610382974147,0.0006103515625,0.0
0.0915,0.045344665646553,0.00030517578125,0.0
0.0919999999999999,0.0453284382820129,0.0,0.0
0.0925,0.0453124716877937,0.0006103515625,0.0
0.0929999999999999,0.04529595002532,0.00030517578125,0.0
0.0935,0.0452800840139389,0.0006103515625,0.0
0.0939999999999999,0.0452636443078517,0.0,0.0
0.0945,0.0452477037906646,0.00030517578125,0.0
0.0949999999999999,0.0452311150729656,0.0006103515625,0.0
0.0955,0.0452149026095867,0.0006103515625,0.0
0.0959999999999999,0.0451986454427242,0.00091552734375,0.0
0.0965,0.0451821386814117,0.00030517578125,0.0
0.0969999999999999,0.0451661869883537,-0.00030517578125,0.0
0.0975,0.0451497882604599,0.0,0.0
0.0979999999999999,0.0451334863901138,0.0006103515625,0.0
0.0985,0.0451174117624759,0.00030517578125,0.0
0.0989999999999999,0.0451007522642612,0.001220703125,0.0
0.0995,0.0450845994055271,0.00030517578125,0.0
0.0999999999999999,0.0450682267546653,0.0,0.0
0.1005,0.045051671564579,0.00091552734375,0.0
0.1009999999999999,0.045036032795906,0.0,0.0
0.1015,0.045019619166851,0.0006103515625,0.0
0.1019999999999999,0.0450032986700534,0.0006103515625,0.0
0.1025,0.04498727992177,0.00030517578125,0.0
0.1029999999999999,0.0449709594249725,0.0006103515625,0.0
0.1035,0.0449548661708831,0.0006103515625,0.0
0.1039999999999999,0.0449384562671184,0.00091552734375,0.0
0.1045,0.0449226945638656,0.00030517578125,0.0
0.1049999999999999,0.0449064522981643,0.00030517578125,0.0
0.1055,0.0448899045586586,0.00030517578125,0.0
0.1059999999999999,0.044874008744955,0.00030517578125,0.0
0.1065,0.0448575727641582,0.00030517578125,0.0
0.1069999999999999,0.0448413640260696,0.00030517578125,0.0
0.1075,0.0448253750801086,0.00091552734375,0.0
0.1079999999999999,0.0448090694844722,0.00030517578125,0.0
0.1085,0.0447927974164485,0.0006103515625,0.0
0.1089999999999999,0.0447764880955219,0.0006103515625,0.0
0.1095,0.0447603277862072,0.00091552734375,0.0
0.1099999999999999,0.0447441823780536,0.00091552734375,0.0
0.1105,0.0447277687489986,0.0006103515625,0.0
0.1109999999999999,0.0447116382420063,0.0006103515625,0.0
0.1115,0.0446953810751438,0.00030517578125,0.0
0.1119999999999999,0.0446792691946029,0.0,0.0
0.1125,0.0446631126105785,0.0006103515625,0.0
0.1129999999999999,0.0446462370455265,0.0006103515625,0.0
0.1135,0.0446304753422737,0.0,0.0
0.1139999999999999,0.0446142479777336,0.0006103515625,0.0
0.1145,0.0445979572832584,0.00030517578125,0.0
0.1149999999999999,0.0445817001163959,0.00030517578125,0.0
0.1155,0.0445655100047588,0.00030517578125,0.0
0.1159999999999999,0.0445493943989276,0.0,0.0
0.1165,0.0445329435169696,0.00030517578125,0.0
0.1169999999999999,0.044516559690237,0.00030517578125,0.0
0.1175,0.0445006117224693,0.00030517578125,0.0
0.118,0.0444842986762523,0.00030517578125,0.0
0.1185,0.0444681495428085,0.00030517578125,0.0
0.119,0.0444521084427833,0.00091552734375,0.0
0.1195,0.0444357097148895,-0.00030517578125,0.0
0.12,0.0444196127355098,0.00030517578125,0.0
0.1205,0.0444027073681354,0.0006103515625,0.0
0.121,0.0443869046866893,0.001220703125,0.0
0.1215,0.0443706698715686,0.0,0.0
0.122,0.0443543568253517,0.0006103515625,0.0
0.1225,0.044338408857584,0.00030517578125,0.0
0.123,0.0443218015134334,0.00030517578125,0.0
0.1235,0.0443054474890232,0.00030517578125,0.0
0.124,0.0442891307175159,0.0006103515625,0.0
0.1245,0.044273093342781,0.0006103515625,0.0
0.125,0.04425710439682,0.00030517578125,0.0
0.1254999999999999,0.0442403741180896,0.0006103515625,0.0
0.126,0.0442246720194816,0.0006103515625,0.0
0.1264999999999999,0.0442081727087497,0.00030517578125,0.0
0.127,0.0441917441785335,0.00030517578125,0.0
0.1274999999999999,0.0441755875945091,0.0006103515625,0.0
0.128,0.0441593043506145,0.00091552734375,0.0
0.1284999999999999,0.044143408536911,0.00091552734375,0.0
0.129,0.0441269613802433,0.0,0.0
0.1294999999999999,0.0441108383238315,0.0006103515625,0.0
0.13,0.0440946891903877,0.00030517578125,0.0
0.1304999999999999,0.044078029692173,0.0006103515625,0.0
0.131,0.0440620295703411,0.0,0.0
0.1314999999999999,0.0440460070967674,0.0006103515625,0.0
0.132,0.0440296903252601,0.00030517578125,0.0
0.1324999999999999,0.0440137982368469,0.0006103515625,0.0
0.133,0.043997123837471,0.0,0.0
0.1334999999999999,0.0439811050891876,0.0006103515625,0.0
0.134,0.0439649298787117,0.00030517578125,0.0
0.1344999999999999,0.0439486466348171,0.00030517578125,0.0
0.135,0.0439323596656322,0.0006103515625,0.0
0.1354999999999999,0.0439159721136093,0.00030517578125,0.0
0.136,0.0438999347388744,0.00030517578125,0.0
0.1364999999999999,0.043883491307497,-0.0006103515625,0.0
0.137,0.0438672229647636,0.0006103515625,0.0
0.1374999999999999,0.0438512340188026,0.00091552734375,0.0
0.138,0.043834738433361,0.00030517578125,0.0
0.1384999999999999,0.0438187718391418,0.00030517578125,0.0
0.139,0.0438019931316375,0.00030517578125,0.0
0.1394999999999999,0.043786235153675,0.00030517578125,0.0
0.14,0.0437700971961021,0.00030517578125,0.0
0.1404999999999999,0.043753370642662,0.001220703125,0.0
0.141,0.0437376610934734,0.0006103515625,0.0
0.1414999999999999,0.0437209084630012,0.00030517578125,0.0
0.142,0.043704979121685,0.00030517578125,0.0
0.1424999999999999,0.0436890497803688,0.0006103515625,0.0
0.143,0.0436724610626697,0.00030517578125,0.0
0.1434999999999999,0.043656125664711,0.0006103515625,0.0
0.144,0.0436399467289447,0.001220703125,0.0
0.1444999999999999,0.0436239838600158,0.00030517578125,0.0
0.145,0.0436076819896698,0.0006103515625,0.0
0.1454999999999999,0.0435910522937774,0.00091552734375,0.0
0.146,0.0435752384364604,0.0006103515625,0.0
0.1464999999999999,0.0435586273670196,0.0006103515625,0.0
0.147,0.0435424372553825,0.0,0.0
0.1474999999999999,0.0435263738036155,0.00091552734375,0.0
0.148,0.0435096584260463,0.0,0.0
0.1484999999999999,0.0434937924146652,0.00030517578125,0.0
0.149,0.0434773229062557,0.00091552734375,0.0
0.1494999999999999,0.0434613861143589,0.0,0.0
0.15,0.0434446707367897,0.0006103515625,0.0
0.1504999999999999,0.0434282049536705,0.00030517578125,0.0
0.151,0.0434124432504177,0.00030517578125,0.0
0.1514999999999999,0.0433960668742656,0.00030517578125,0.0
0.152,0.0433798804879188,0.0006103515625,0.0
0.1524999999999999,0.0433636270463466,0.00030517578125,0.0
0.153,0.0433475226163864,0.0006103515625,0.0
0.1534999999999999,0.0433313809335231,0.0006103515625,0.0
0.154,0.0433147698640823,0.0,0.0
0.1544999999999999,0.0432991832494735,0.0,0.0
0.155,0.0432827286422252,0.0,0.0
0.1554999999999999,0.0432662069797515,0.00091552734375,0.0
0.156,0.0432503595948219,0.0006103515625,0.0
0.1564999999999999,0.0432339683175087,0.0006103515625,0.0
0.157,0.0432177744805812,0.0,0.0
0.1574999999999999,0.0432017594575881,0.00030517578125,0.0
0.158,0.0431855544447898,0.0,0.0
0.1584999999999999,0.0431691855192184,0.00030517578125,0.0
0.159,0.0431530736386776,0.00091552734375,0.0
0.1594999999999999,0.0431365333497524,0.00030517578125,0.0
0.16,0.0431202091276645,0.0006103515625,0.0
0.1604999999999999,0.0431039631366729,0.00091552734375,0.0
0.161,0.0430879667401313,0.00091552734375,0.0
0.1614999999999999,0.0430716983973979,0.00091552734375,0.0
0.162,0.0430554114282131,0.0006103515625,0.0
0.1624999999999999,0.0430392399430274,0.0,0.0
0.163,0.0430228933691978,0.0006103515625,0.0
0.1634999999999999,0.0430067852139472,0.0006103515625,0.0
0.164,0.0429904796183109,0.0006103515625,0.0
0.1644999999999999,0.0429744012653827,0.0006103515625,0.0
0.165,0.0429582707583904,0.00091552734375,0.0
0.1654999999999999,0.0429422482848167,0.0006103515625,0.0
0.166,0.0429258309304714,0.001220703125,0.0
0.1664999999999999,0.0429093912243843,0.00091552734375,0.0
0.167,0.0428932756185531,0.00091552734375,0.0
0.1674999999999999,0.0428769290447235,0.0006103515625,0.0
0.168,0.0428604409098625,0.00030517578125,0.0
0.1684999999999999,0.0428443439304828,0.00030517578125,0.0
0.169,0.0428281128406524,0.0006103515625,0.0
0.1694999999999999,0.0428119078278541,0.00091552734375,0.0
0.17,0.0427955128252506,0.0006103515625,0.0
0.1704999999999999,0.0427794121205806,0.0006103515625,0.0
0.171,0.0427633821964263,0.0006103515625,0.0
0.1714999999999999,0.0427467413246631,0.00030517578125,0.0
0.172,0.042730513960123,0.0006103515625,0.0
