time [s],Lmtc [m],STIM [ ],Fsee [N]
0.0,0.0480149053037166,0.00091552734375,0.2215834619061252
0.0004999999999999,0.0480146631598472,0.00030517578125,0.22133067561106495
0.001,0.0480149313807487,0.00030517578125,0.22161713492724408
0.0014999999999999,0.0480150207877159,0.0,0.2217069525795644
0.002,0.0480144843459129,0.0006103515625,0.22114704376699626
0.0024999999999999,0.0480150058865547,0.0006103515625,0.22170461929493945
0.003,0.0480147898197174,0.00030517578125,0.22147451413978161
0.0034999999999999,0.0480146370828151,0.00091552734375,0.22132001313482075
0.004,0.0480148158967494,0.001220703125,0.22151454570857712
0.0044999999999999,0.048014722764492,0.0006103515625,0.22141805516850901
0.005,0.0480150543153286,0.00030517578125,0.22176545459329647
0.0054999999999999,0.0480146408081054,0.0006103515625,0.22132869883689948
0.006,0.0480148941278457,0.0,0.22159979483004244
0.0064999999999999,0.0480150431394577,0.0006103515625,0.22175214163787238
0.007,0.0480145253241062,0.00091552734375,0.2212095355816399
0.0074999999999999,0.0480148792266845,0.00030517578125,0.22159055122000276
0.008,0.0480147004127502,0.00030517578125,0.2214031682073495
0.0084999999999999,0.0480150952935218,0.0,0.22181723337653103
0.009,0.0480147339403629,0.0006103515625,0.2214331359007806
0.0094999999999999,0.0480146184563636,0.0006103515625,0.2213189678716848
0.01,0.0480148419737815,0.00091552734375,0.22155958422868904
0.0104999999999999,0.0480137057602405,0.00030517578125,0.22039625529882947
0.011,0.048012226819992,0.00030517578125,0.21895566700258642
0.0114999999999999,0.0480086207389831,0.00030517578125,0.21546429137873455
0.012,0.0480029210448265,0.0006103515625,0.21014090689574497
0.0124999999999999,0.047995276749134,0.00030517578125,0.203380514979023
0.013,0.0479845665395259,0.00091552734375,0.19438260673842386
0.0134999999999999,0.0479711480438709,0.00030517578125,0.18404486265303668
0.014,0.0479554645717144,0.0006103515625,0.17340333708637928
0.0144999999999999,0.0479368716478347,0.00030517578125,0.16270081482653384
0.015,0.0479165613651275,0.00030517578125,0.1538334701837546
0.0154999999999999,0.0478944964706897,0.00030517578125,0.14704833638402057
0.016,0.0478710681200027,0.0006103515625,0.14211487542470988
0.0164999999999999,0.0478466153144836,0.00030517578125,0.13826364898561022
0.017,0.0478212274610996,0.00030517578125,0.13480833259202588
0.0174999999999999,0.0477961339056491,0.00030517578125,0.13203499678411207
0.018,0.047770332545042,0.0,0.12898061499334074
0.0184999999999999,0.0477448403835296,-0.00030517578125,0.12630524334457205
0.019,0.047719519585371,0.00030517578125,0.1237017393394553
0.0194999999999999,0.0476942472159862,0.0,0.12108357792266047
0.02,0.0476696193218231,0.0006103515625,0.11878674122676856
0.0204999999999999,0.0476443655788898,0.0006103515625,0.1160224603684929
0.021,0.0476198755204677,0.00030517578125,0.11376727803304813
0.0214999999999999,0.0475951880216598,0.00030517578125,0.11126922237516298
0.022,0.0475704558193683,0.001220703125,0.10878218875069494
0.0224999999999999,0.0475458726286888,0.00030517578125,0.10638910417785215
0.023,0.0475209206342697,0.0006103515625,0.10382876092406423
0.0234999999999999,0.0474963039159774,0.00030517578125,0.10151877295979612
0.024,0.0474716834723949,0.00030517578125,0.0991780380439089
0.0244999999999999,0.0474472679197788,0.00091552734375,0.09693871463660798
0.025,0.0474222414195537,0.0006103515625,0.0943817951289826
0.0254999999999999,0.0473974049091339,0.0006103515625,0.09207145891816342
0.026,0.0473726391792297,0.00030517578125,0.08980770201157279
0.0264999999999999,0.0473478436470031,0.00030517578125,0.08753575093647996
0.027,0.0473231188952922,0.0006103515625,0.08533309491867619
0.0274999999999999,0.0472987480461597,0.0,0.08327960579442928
0.028,0.0472741052508354,0.0,0.08104312743020596
0.0284999999999999,0.0472493506968021,0.00030517578125,0.07881429935233956
0.029,0.0472243539988994,0.0006103515625,0.07654753774677263
0.0294999999999999,0.0471998639404773,0.0006103515625,0.07458298291818692
0.03,0.0471752695739269,0.0006103515625,0.07250777104385621
0.0304999999999999,0.0471501983702182,0.00030517578125,0.07025676096351603
0.031,0.0471257716417312,0.00030517578125,0.06839030798513329
0.0314999999999999,0.0471008643507957,0.0006103515625,0.0662485943974115
0.032,0.0470758117735385,0.00030517578125,0.06413639927954704
0.0324999999999999,0.0470514707267284,0.0,0.062384248470092434
0.033,0.0470267236232757,0.0,0.06037918410716066
0.0334999999999999,0.0470019243657588,0.0006103515625,0.05840763259867314
0.034,0.0469770953059196,0.0006103515625,0.056468215068802854
0.0344999999999999,0.046952411532402,0.0006103515625,0.054626806807575076
0.035,0.0469282492995262,0.0006103515625,0.052991961962481134
0.0354999999999999,0.0469029992818832,0.00030517578125,0.05085560867778216
0.036,0.0468782000243663,0.00030517578125,0.049067730945432084
0.0364999999999999,0.0468537472188472,0.00030517578125,0.047412936144866656
0.037,0.0468290746212005,0.00030517578125,0.04564421043733594
0.0374999999999999,0.0468044020235538,0.00030517578125,0.043903647484055765
0.038,0.0467796623706817,0.0006103515625,0.042168611154236105
0.0384999999999999,0.0467549599707126,0.0,0.04047979474347483
0.039,0.0467302165925502,0.00030517578125,0.03880792991398101
0.0394999999999999,0.046706024557352,0.00030517578125,0.03734542860685542
0.04,0.046681135892868,0.0,0.035610151645111575
0.0404999999999999,0.0466560088098049,0.0,0.033868606770731786
0.041,0.0466316863894462,0.00030517578125,0.03247500273156286
0.0414999999999999,0.0466066822409629,0.001220703125,0.03082232099635275
0.042,0.0465820655226707,0.00030517578125,0.02936005322654748
0.0424999999999999,0.04655721783638,0.00091552734375,0.027834286846959762
0.043,0.0465326197445392,0.00030517578125,0.02642262580699036
0.0434999999999999,0.0465082898736,0.00030517578125,0.025093866763168424
0.044,0.0464832112193107,0.0006103515625,0.023542733020613344
0.0444999999999999,0.0464587844908237,0.00030517578125,0.02224948234219538
0.045,0.0464340858161449,0.00030517578125,0.020879133771597162
0.0454999999999999,0.0464093424379825,0.0006103515625,0.019531480694448877
0.046,0.0463848784565925,0.0,0.01828942932082634
0.0464999999999999,0.0463603250682354,0.00030517578125,0.017034995477140276
0.047,0.0463356375694274,0.0006103515625,0.015772764306985654
0.0474999999999999,0.0463110134005546,0.00030517578125,0.01456146694420971
0.048,0.0462862253189086,0.0006103515625,0.013344699032853903
0.0484999999999999,0.0462618432939052,0.00030517578125,0.012255261847381807
0.049,0.0462365709245204,0.0006103515625,0.010996929575323689
0.0494999999999999,0.0462122149765491,0.0006103515625,0.009994275405313287
0.05,0.0461872965097427,0.00091552734375,0.008896160962092092
0.0504999999999999,0.0461625903844833,0.0,0.007886826833208698
0.051,0.0461380518972873,0.0006103515625,0.00694067224215164
0.0514999999999999,0.0461130142211914,0.0006103515625,0.005949029436989929
0.052,0.0460889562964439,0.0,0.005161428354019274
0.0524999999999999,0.0460639372467994,0.0006103515625,0.004261273341712024
0.053,0.0460395403206348,0.00091552734375,0.0035059386411694753
0.0534999999999999,0.046014841645956,0.0006103515625,0.0027623217808723614
0.054,0.0459899678826332,0.0,0.00206732222016903
0.0544999999999999,0.0459655560553073,0.0,0.0014896362794792999
0.055,0.0459402352571487,0.00030517578125,0.0009234038234802955
0.0554999999999999,0.0459159761667251,0.0006103515625,0.00052857720517028
0.056,0.0458911210298538,0.0006103515625,0.0002095581097730306
0.0564999999999999,0.0458664074540138,0.00030517578125,3.158528929087179e-05
0.057,0.0458418615162372,0.0,0.0
0.0574999999999999,0.0458171516656875,0.0006103515625,0.0
0.058,0.0457923598587513,0.00091552734375,0.0
0.0584999999999999,0.0457678511738777,0.0006103515625,0.0
0.059,0.0457429587841033,0.00030517578125,0.0
0.0595,0.0457185171544551,-0.00030517578125,0.0
0.06,0.045693676918745,0.0006103515625,0.0
0.0605,0.0456688590347766,0.00091552734375,0.0
0.061,0.0456445962190628,0.00091552734375,0.0
0.0615,0.0456194840371608,0.0006103515625,0.0
0.062,0.0455948896706104,0.0006103515625,0.0
0.0625,0.0455704443156719,0.0,0.0
0.0629999999999999,0.0455458089709281,0.001220703125,0.0
0.0635,0.0455210655927658,0.0006103515625,0.0
0.0639999999999999,0.0454962104558944,0.0006103515625,0.0
0.0645,0.0454719103872776,0.0006103515625,0.0
0.0649999999999999,0.0454469174146652,-0.00030517578125,0.0
0.0655,0.0454222001135349,0.0,0.0
0.0659999999999999,0.0453974902629852,0.0006103515625,0.0
0.0665,0.045372761785984,0.00030517578125,0.0
0.0669999999999999,0.0453479588031768,0.0006103515625,0.0
0.0675,0.0453232191503047,0.00030517578125,0.0
0.0679999999999999,0.0452984012663364,0.00030517578125,0.0
0.0685,0.0452739894390106,0.00030517578125,0.0
0.0689999999999999,0.0452492423355579,0.00030517578125,0.0
0.0695,0.0452248230576515,0.0,0.0
0.0699999999999999,0.0451998747885227,0.00030517578125,0.0
0.0705,0.0451747998595237,0.0,0.0
0.0709999999999999,0.0451506003737449,0.00030517578125,0.0
0.0715,0.0451255179941654,0.00030517578125,0.0
0.0719999999999999,0.0451011210680007,0.0006103515625,0.0
0.0725,0.0450760461390018,0.00030517578125,0.0
0.0729999999999999,0.0450513921678066,0.00030517578125,0.0
0.0735,0.0450269132852554,0.00091552734375,0.0
0.0739999999999999,0.0450018048286438,0.00091552734375,0.0
0.0745,0.0449771881103515,0.0006103515625,0.0
0.0749999999999999,0.0449527502059936,0.0006103515625,0.0
0.0755,0.0449280515313148,0.0,0.0
0.0759999999999999,0.0449035093188285,0.00030517578125,0.0
0.0765,0.0448790937662124,0.0006103515625,0.0
0.0769999999999999,0.0448543913662433,0.00091552734375,0.0
0.0775,0.0448295585811138,0.00030517578125,0.0
0.0779999999999999,0.0448054932057857,0.00030517578125,0.0
0.0785,0.0447805821895599,0.00030517578125,0.0
0.0789999999999999,0.0447560027241706,0.0006103515625,0.0
0.0795,0.0447314456105232,0.0006103515625,0.0
0.0799999999999999,0.0447065234184265,0.00091552734375,0.0
0.0805,0.0446818433701992,0.0006103515625,0.0
0.0809999999999999,0.0446571893990039,0.00030517578125,0.0
0.0815,0.0446324832737445,0.00030517578125,0.0
0.0819999999999999,0.0446081012487411,0.00030517578125,0.0
0.0825,0.0445831976830959,0.00030517578125,0.0
0.0829999999999999,0.0445586405694484,0.0006103515625,0.0
0.0835,0.0445335283875465,0.0006103515625,0.0
0.0839999999999999,0.0445088893175125,0.00030517578125,0.0
0.0845,0.0444847643375396,0.00030517578125,0.0
0.0849999999999999,0.0444598123431205,0.00030517578125,0.0
0.0855,0.0444350726902484,0.00030517578125,0.0
0.0859999999999999,0.0444102175533771,0.0,0.0
0.0865,0.0443859286606311,0.00091552734375,0.0
0.0869999999999999,0.0443609505891799,0.0006103515625,0.0
0.0875,0.0443362779915332,0.0,0.0
0.0879999999999999,0.0443118847906589,0.0,0.0
0.0885,0.0442865118384361,0.00030517578125,0.0
0.0889999999999999,0.0442621521651744,0.0,0.0
0.0895,0.0442372299730777,0.0006103515625,0.0
0.0899999999999999,0.0442124344408512,0.0006103515625,0.0
0.0905,0.0441880747675895,0.0,0.0
0.0909999999999999,0.0441633351147174,0.00091552734375,0.0
0.0915,0.0441388003528118,0.0006103515625,0.0
0.0919999999999999,0.044114101678133,0.0006103515625,0.0
0.0925,0.0440893024206161,0.00030517578125,0.0
0.0929999999999999,0.0440648384392261,0.00030517578125,0.0
0.0935,0.0440399572253227,0.00030517578125,0.0
0.0939999999999999,0.044015347957611,0.0006103515625,0.0
0.0945,0.0439906120300293,0.00030517578125,0.0
0.0949999999999999,0.0439660139381885,0.00030517578125,0.0
0.0955,0.0439413301646709,0.0006103515625,0.0
0.0959999999999999,0.0439165346324443,0.0,0.0
0.0965,0.0438921824097633,0.0006103515625,0.0
0.0969999999999999,0.0438674576580524,-0.00030517578125,0.0
0.0975,0.0438426733016967,0.00030517578125,0.0
0.0979999999999999,0.0438180826604366,0.00091552734375,0.0
0.0985,0.0437930934131145,0.0,0.0
0.0989999999999999,0.0437686033546924,0.00030517578125,0.0
0.0995,0.0437437742948532,0.0006103515625,0.0
0.0999999999999999,0.0437194369733333,-0.0006103515625,0.0
0.1005,0.0436946675181388,0.0,0.0
0.1009999999999999,0.0436695404350757,0.00091552734375,0.0
0.1015,0.043645154684782,0.00030517578125,0.0
0.1019999999999999,0.0436205640435218,0.00030517578125,0.0
0.1025,0.0435956493020057,-0.00030517578125,0.0
0.1029999999999999,0.043570976704359,0.0006103515625,0.0
0.1035,0.0435461737215518,0.0,0.0
0.1039999999999999,0.0435214191675186,0.00030517578125,0.0
0.1045,0.0434966385364532,0.00030517578125,0.0
0.1049999999999999,0.0434717200696468,0.00091552734375,0.0
0.1055,0.0434474311769008,0.001220703125,0.0
0.1059999999999999,0.0434222444891929,0.0006103515625,0.0
0.1065,0.0433980710804462,0.00091552734375,0.0
0.1069999999999999,0.0433732010424137,0.0,0.0
0.1075,0.0433485209941864,0.0006103515625,0.0
0.1079999999999999,0.0433240458369255,0.00091552734375,0.0
0.1085,0.0432991348206996,0.00030517578125,0.0
0.1089999999999999,0.0432748086750507,0.0006103515625,0.0
0.1095,0.0432501286268234,0.00091552734375,0.0
0.1099999999999999,0.043225459754467,0.0006103515625,0.0
0.1105,0.0432005934417247,0.00030517578125,0.0
0.1109999999999999,0.0431760251522064,0.00030517578125,0.0
0.1115,0.0431515648961067,0.00030517578125,0.0
0.1119999999999999,0.0431267358362674,0.0,0.0
0.1125,0.0431022830307483,0.0,0.0
0.1129999999999999,0.0430775620043277,0.00091552734375,0.0
0.1135,0.0430524386465549,0.00030517578125,0.0
0.1139999999999999,0.0430279076099395,0.00030517578125,0.0
0.1145,0.0430031456053257,0.00030517578125,0.0
0.1149999999999999,0.0429786816239357,0.0,0.0
0.1155,0.042953722178936,0.00030517578125,0.0
0.1159999999999999,0.04292918369174,0.00030517578125,0.0
0.1165,0.0429047495126724,0.00030517578125,0.0
0.1169999999999999,0.0428796596825122,-0.00030517578125,0.0
0.1175,0.0428552627563476,0.0006103515625,0.0
0.118,0.0428304560482502,0.00091552734375,0.0
0.1185,0.0428059585392475,0.00030517578125,0.0
0.119,0.0427810698747634,0.00030517578125,0.0
0.1195,0.0427564270794391,0.00030517578125,0.0
0.12,0.0427317321300506,0.0006103515625,0.0
0.1205,0.0427064336836338,0.0006103515625,0.0
0.121,0.0426824241876602,0.0006103515625,0.0
0.1215,0.0426576770842075,0.0006103515625,0.0
0.122,0.0426325239241123,0.00091552734375,0.0
0.1225,0.0426081977784633,0.0,0.0
0.123,0.0425834581255912,0.00030517578125,0.0
0.1235,0.0425586104393005,0.0006103515625,0.0
0.124,0.0425341576337814,0.0006103515625,0.0
0.1245,0.0425093248486518,0.00091552734375,0.0
0.125,0.0424849241971969,0.0,0.0
0.1254999999999999,0.0424601547420024,0.0,0.0
0.126,0.042435698211193,0.0006103515625,0.0
0.1264999999999999,0.0424108058214187,0.0006103515625,0.0
0.127,0.0423862338066101,0.0,0.0
0.1274999999999999,0.0423615723848342,0.0,0.0
0.128,0.0423369295895099,0.00030517578125,0.0
0.1284999999999999,0.0423121713101863,0.0,0.0
0.129,0.0422873087227344,0.0,0.0
0.1294999999999999,0.0422625578939914,0.0006103515625,0.0
0.13,0.0422380454838275,0.0006103515625,0.0
0.1304999999999999,0.0422132350504398,-0.00030517578125,0.0
0.131,0.0421889200806617,0.0006103515625,0.0
0.1314999999999999,0.0421639755368232,0.00091552734375,0.0
0.132,0.0421393327414989,0.00030517578125,0.0
0.1324999999999999,0.0421144813299179,0.0006103515625,0.0
0.133,0.0420900173485279,0.0,0.0
0.1334999999999999,0.0420653522014617,0.001220703125,0.0
0.134,0.0420405194163322,0.0006103515625,0.0
0.1344999999999999,0.0420158766210079,0.00091552734375,0.0
0.135,0.0419908948242664,0.0,0.0
0.1354999999999999,0.0419662669301033,0.001220703125,0.0
0.136,0.0419415086507797,0.0006103515625,0.0
0.1364999999999999,0.0419167131185531,0.0,0.0
0.137,0.0418917313218116,0.0,0.0
0.1374999999999999,0.0418673567473888,0.0,0.0
0.138,0.0418426431715488,0.00030517578125,0.0
0.1384999999999999,0.0418178886175155,0.00030517578125,0.0
0.139,0.0417931862175464,0.0,0.0
0.1394999999999999,0.0417681857943534,0.00030517578125,0.0
0.14,0.0417439229786396,0.0006103515625,0.0
0.1404999999999999,0.0417191088199615,0.0006103515625,0.0
0.141,0.0416947752237319,0.0006103515625,0.0
0.1414999999999999,0.0416701585054397,0.00030517578125,0.0
0.142,0.0416451431810855,0.0006103515625,0.0
0.1424999999999999,0.0416207090020179,0.0006103515625,0.0
0.143,0.0415959581732749,0.00030517578125,0.0
0.1434999999999999,0.0415713414549827,0.0,0.0
0.144,0.0415467321872711,0.00030517578125,0.0
0.1444999999999999,0.0415220521390438,0.00030517578125,0.0
0.145,0.0414975546300411,0.001220703125,0.0
0.1454999999999999,0.0414725095033645,0.00030517578125,0.0
0.146,0.0414480865001678,0.0006103515625,0.0
0.1464999999999999,0.0414233803749084,0.0006103515625,0.0
0.147,0.0413987077772617,0.0006103515625,0.0
0.1474999999999999,0.0413741841912269,0.0,0.0
0.148,0.0413494855165481,0.00030517578125,0.0
0.1484999999999999,0.0413248091936111,0.0,0.0
0.149,0.0412999913096427,0.0006103515625,0.0
0.1494999999999999,0.0412752255797386,0.0,0.0
0.15,0.0412508659064769,0.0006103515625,0.0
0.1504999999999999,0.0412256903946399,0.0006103515625,0.0
0.151,0.0412018448114395,-0.00030517578125,0.0
0.1514999999999999,0.0411765985190868,0.00030517578125,0.0
0.152,0.0411518663167953,0.00030517578125,0.0
0.1524999999999999,0.0411270298063755,0.0006103515625,0.0
0.153,0.0411021150648593,0.0006103515625,0.0
0.1534999999999999,0.0410779416561126,0.00030517578125,0.0
0.154,0.0410528294742107,0.0006103515625,0.0
0.1544999999999999,0.0410285703837871,0.0006103515625,0.0
0.155,0.0410038083791732,0.0006103515625,0.0
0.1554999999999999,0.0409786961972713,0.0,0.0
0.156,0.040954153984785,0.00091552734375,0.0
0.1564999999999999,0.0409297794103622,0.0006103515625,0.0
0.157,0.0409049540758132,0.00030517578125,0.0
0.1574999999999999,0.0408804230391979,0.0006103515625,0.0
0.158,0.0408556163311004,0.0006103515625,0.0
0.1584999999999999,0.0408309735357761,0.0006103515625,0.0
0.159,0.0408063568174839,0.0006103515625,0.0
0.1594999999999999,0.0407817773520946,0.00030517578125,0.0
0.16,0.0407569855451583,0.00091552734375,0.0
0.1604999999999999,0.0407318547368049,0.00030517578125,0.0
0.161,0.0407076478004455,0.001220703125,0.0
0.1614999999999999,0.040682628750801,0.0006103515625,0.0
0.162,0.0406581908464431,0.00030517578125,0.0
0.1624999999999999,0.0406330786645412,0.00030517578125,0.0
0.163,0.0406085327267646,0.00091552734375,0.0
0.1634999999999999,0.0405842997133731,0.0006103515625,0.0
0.164,0.0405591577291488,0.0006103515625,0.0
0.1644999999999999,0.0405349992215633,0.0006103515625,0.0
0.165,0.0405098721385002,0.00030517578125,0.0
0.1654999999999999,0.040484994649887,0.00091552734375,0.0
0.166,0.0404604822397232,0.00030517578125,0.0
0.1664999999999999,0.040435791015625,0.00030517578125,0.0
0.167,0.0404112376272678,0.0,0.0
0.1674999999999999,0.0403861925005912,0.0006103515625,0.0
0.168,0.040361288934946,0.00030517578125,0.0
0.1684999999999999,0.0403367541730403,0.00091552734375,0.0
0.169,0.0403118655085563,0.0006103515625,0.0
0.1694999999999999,0.0402874238789081,0.001220703125,0.0
0.17,0.0402629561722278,0.0006103515625,0.0
0.1704999999999999,0.0402380265295505,0.0006103515625,0.0
0.171,0.0402134917676448,0.00030517578125,0.0
0.1714999999999999,0.0401888936758041,0.0006103515625,0.0
0.172,0.0401647537946701,0.00091552734375,0.0
0.1725,0.0401403494179248,0.0006103515625,0.0
0.173,0.0401167310774326,0.0006103515625,0.0
0.1735,0.0400944389402866,0.00091552734375,0.0
0.174,0.0400727503001689,0.0006103515625,0.0
0.1745,0.0400527417659759,0.0006103515625,0.0
0.175,0.0400344431400299,0.00030517578125,0.0
0.1755,0.0400187484920024,0.00091552734375,0.0
0.176,0.0400058254599571,0.00030517578125,0.0
0.1765,0.0399957560002803,0.00030517578125,0.0
0.177,0.0399893298745155,0.00091552734375,0.0
0.1775,0.0399861522018909,0.0006103515625,0.0
0.178,0.0399867221713066,0.0,0.0
0.1785,0.039990659803152,0.0,0.0
0.179,0.0399981290102005,0.0006103515625,0.0
0.1795,0.0400090627372264,0.00091552734375,0.0
0.18,0.0400224812328815,0.0,0.0
0.1805,0.04003881290555,0.0,0.0
0.181,0.0400576740503311,0.00091552734375,0.0
0.1815,0.0400774963200092,0.00030517578125,0.0
0.182,0.0400995016098022,0.0006103515625,0.0
0.1825,0.0401228219270706,0.00030517578125,0.0
0.183,0.0401464328169822,0.00091552734375,0.0
