time [s],Lmtc [m],STIM [ ],Fsee [N]
0.0,0.046006828546524,0.0,0.08164077744680759
0.0004999999999999,0.0460066497325897,0.00030517578125,0.08152764990777944
0.001,0.0460069328546524,0.0006103515625,0.08170983429891249
0.0014999999999999,0.0460067130625247,0.00030517578125,0.08156932848805835
0.002,0.0460066497325897,0.0,0.08153143881712765
0.0024999999999999,0.0460068359971046,0.0006103515625,0.08165228173061355
0.003,0.0460065379738807,0.0006103515625,0.08146388526538002
0.0034999999999999,0.0460069291293621,0.00091552734375,0.08171612159941166
0.004,0.0460066869854927,0.00030517578125,0.0815613400123304
0.0044999999999999,0.0460065715014934,0.00030517578125,0.08149060792253725
0.005,0.0460067726671695,0.00030517578125,0.08162179422312195
0.0054999999999999,0.0460066199302673,0.0006103515625,0.0815259703160321
0.006,0.0460064299404621,0.001220703125,0.08140949496232378
0.0064999999999999,0.0460060313344001,0.0,0.08116589199710439
0.007,0.0460044033825397,0.00030517578125,0.08015871321125995
0.0074999999999999,0.0460015572607517,0.0006103515625,0.07843374176638529
0.008,0.0459969900548458,0.0006103515625,0.07572904252324217
0.0084999999999999,0.0459902621805667,0.00091552734375,0.07187237559523568
0.009,0.045981477946043,0.0,0.0670575423548604
0.0094999999999999,0.0459707453846931,0.00091552734375,0.061500389126621015
0.01,0.0459587760269641,0.0006103515625,0.055731171583442415
0.0104999999999999,0.0459443964064121,0.0006103515625,0.049278396535598526
0.011,0.0459294095635414,0.0006103515625,0.043198639321915325
0.0114999999999999,0.045913603156805,0.0006103515625,0.037429436707889965
0.012,0.0458968169987201,0.00030517578125,0.03195045241901086
0.0124999999999999,0.0458801947534084,0.00030517578125,0.027226616402731527
0.013,0.0458629131317138,0.00091552734375,0.022901124710323576
0.0134999999999999,0.0458461157977581,0.00030517578125,0.01932116793888343
0.014,0.0458288975059986,0.0006103515625,0.01611980446786981
0.0144999999999999,0.0458117872476577,0.00030517578125,0.013405369195111852
0.015,0.0457951761782169,0.00030517578125,0.01119693591723792
0.0154999999999999,0.0457781255245208,0.0006103515625,0.009205948423509405
0.016,0.0457616969943046,0.0006103515625,0.007621046258440297
0.0164999999999999,0.0457451976835727,0.00030517578125,0.006241824747340738
0.017,0.0457286983728408,0.00030517578125,0.0050535058144099134
0.0174999999999999,0.0457124076783657,0.0,0.004059675684572119
0.018,0.0456955432891845,0.00091552734375,0.003131955459513925
0.0184999999999999,0.045679360628128,0.00030517578125,0.002419143917987687
0.019,0.0456627309322357,0.0006103515625,0.0017687112392160216
0.0194999999999999,0.0456464178860187,0.00030517578125,0.0012525825638792598
0.02,0.0456299297511577,0.00030517578125,0.0008176470286901599
0.0204999999999999,0.0456132926046848,0.00030517578125,0.0004690185757748008
0.021,0.0455973334610462,0.00091552734375,0.00023904816779908697
0.0214999999999999,0.0455805733799934,0.0006103515625,6.911800217486811e-05
0.022,0.0455640964210033,0.00030517578125,1.9467114549631914e-06
0.0224999999999999,0.0455474629998207,0.0,0.0
0.023,0.0455308407545089,0.00091552734375,0.0
0.0234999999999999,0.0455146059393882,0.001220703125,0.0
0.024,0.0454977825284004,0.00030517578125,0.0
0.0244999999999999,0.0454816073179245,0.0006103515625,0.0
0.025,0.0454647727310657,0.0,0.0
0.0254999999999999,0.0454484708607196,0.00030517578125,0.0
0.026,0.0454320721328258,0.0006103515625,0.0
0.0264999999999999,0.0454153902828693,0.0006103515625,0.0
0.027,0.0453990995883941,0.00030517578125,0.0
0.0274999999999999,0.0453822091221809,0.0,0.0
0.028,0.0453657805919647,0.00030517578125,0.0
0.0284999999999999,0.0453493185341358,0.0006103515625,0.0
0.029,0.0453323051333427,0.00091552734375,0.0
0.0294999999999999,0.045316357165575,0.0006103515625,0.0
0.03,0.0452999286353588,0.00030517578125,0.0
0.0304999999999999,0.0452836714684963,0.0006103515625,0.0
0.031,0.0452670864760875,0.00030517578125,0.0
0.0314999999999999,0.0452505275607109,0.00030517578125,0.0
0.032,0.0452340357005596,0.0006103515625,0.0
0.0324999999999999,0.0452175885438919,0.00030517578125,0.0
0.033,0.0452011674642562,0.0006103515625,0.0
0.0334999999999999,0.0451845154166221,0.00030517578125,0.0
0.034,0.0451679341495037,0.00091552734375,0.0
0.0344999999999999,0.0451517254114151,0.00030517578125,0.0
0.035,0.0451347790658474,0.00030517578125,0.0
0.0354999999999999,0.0451187044382095,0.00091552734375,0.0
0.036,0.0451017692685127,0.0006103515625,0.0
0.0364999999999999,0.045085497200489,0.0006103515625,0.0
0.037,0.0450688563287258,0.00091552734375,0.0
0.0374999999999999,0.0450520403683185,0.00091552734375,0.0
0.038,0.045036107301712,0.00030517578125,0.0
0.0384999999999999,0.0450192913413047,0.00030517578125,0.0
0.039,0.0450027287006378,-0.00030517578125,0.0
0.0394999999999999,0.0449865236878395,0.00030517578125,0.0
0.04,0.0449698716402053,0.001220703125,0.0
0.0404999999999999,0.0449534803628921,0.0006103515625,0.0
0.041,0.0449372380971908,0.0,0.0
0.0414999999999999,0.044920839369297,0.00030517578125,0.0
0.042,0.0449046939611434,0.00030517578125,0.0
0.0424999999999999,0.0448878519237041,0.00030517578125,0.0
0.043,0.0448716543614864,0.0006103515625,0.0
0.0434999999999999,0.0448553413152694,0.0006103515625,0.0
0.044,0.0448384955525398,0.0006103515625,0.0
0.0444999999999999,0.0448222979903221,0.0,0.0
0.045,0.0448057241737842,0.0,0.0
0.0454999999999999,0.044789545238018,0.00030517578125,0.0
0.046,0.0447729974985122,0.0006103515625,0.0
0.0464999999999999,0.0447564907371997,0.0006103515625,0.0
0.047,0.0447402074933052,0.00030517578125,0.0
0.0474999999999999,0.0447233542799949,0.00030517578125,0.0
0.048,0.0447074919939041,0.0006103515625,0.0
0.0484999999999999,0.0446907579898834,0.00030517578125,0.0
0.049,0.0446742624044418,0.0006103515625,0.0
0.0494999999999999,0.0446577072143554,0.0006103515625,0.0
0.05,0.0446412563323974,0.00030517578125,0.0
0.0504999999999999,0.0446248836815357,0.0006103515625,0.0
0.051,0.0446079112589359,0.00030517578125,0.0
0.0514999999999999,0.04459198564291,0.0006103515625,0.0
0.052,0.0445755682885646,0.00030517578125,0.0
0.0524999999999999,0.0445587784051895,0.00030517578125,0.0
0.053,0.0445426665246486,0.00091552734375,0.0
0.0534999999999999,0.0445260927081108,0.0,0.0
0.054,0.0445094481110572,0.0006103515625,0.0
0.0544999999999999,0.044493056833744,0.0,0.0
0.055,0.0444763004779815,0.0006103515625,0.0
0.0554999999999999,0.0444601364433765,0.00030517578125,0.0
0.056,0.0444433763623237,0.0006103515625,0.0
0.0564999999999999,0.0444273240864276,0.00030517578125,0.0
0.057,0.0444106049835681,0.0006103515625,0.0
0.0574999999999999,0.0443937741219997,0.00030517578125,0.0
0.058,0.0443779490888118,0.0,0.0
0.0584999999999999,0.0443611517548561,0.0,0.0
0.059,0.0443449728190898,-0.00030517578125,0.0
0.0595,0.0443279109895229,0.00030517578125,0.0
0.06,0.0443117097020149,0.0006103515625,0.0
0.0605,0.0442953258752822,0.00091552734375,0.0
0.061,0.0442784465849399,0.00030517578125,0.0
0.0615,0.0442622303962707,0.0006103515625,0.0
0.062,0.0442455597221851,0.0,0.0
0.0625,0.0442290715873241,0.00030517578125,0.0
0.0629999999999999,0.0442124344408512,0.0006103515625,0.0
0.0635,0.0441959463059902,0.00030517578125,0.0
0.0639999999999999,0.0441795885562896,0.0006103515625,0.0
0.0645,0.0441630966961383,0.00091552734375,0.0
0.0649999999999999,0.0441469140350818,0.0006103515625,0.0
0.0655,0.0441302731633186,-0.00030517578125,0.0
0.0659999999999999,0.0441138595342636,0.0006103515625,0.0
0.0665,0.0440975576639175,0.0006103515625,0.0
0.0669999999999999,0.0440809652209281,0.0006103515625,0.0
0.0675,0.0440642349421978,0.00030517578125,0.0
0.0679999999999999,0.0440477654337883,0.00030517578125,0.0
0.0685,0.0440312027931213,0.0006103515625,0.0
0.0689999999999999,0.0440149307250976,0.00091552734375,0.0
0.0695,0.0439984090626239,0.001220703125,0.0
0.0699999999999999,0.0439821220934391,0.00030517578125,0.0
0.0705,0.0439656004309654,0.0006103515625,0.0
0.0709999999999999,0.0439491607248783,0.0006103515625,0.0
0.0715,0.043932594358921,0.0006103515625,0.0
0.0719999999999999,0.0439158380031585,0.0,0.0
0.0725,0.0438997074961662,0.00030517578125,0.0
0.0729999999999999,0.0438831821084022,0.00091552734375,0.0
0.0735,0.0438663251698017,0.00091552734375,0.0
0.0739999999999999,0.0438501164317131,0.0006103515625,0.0
0.0745,0.0438335910439491,0.0006103515625,0.0
0.0749999999999999,0.043817039579153,0.00030517578125,0.0
0.0755,0.0438005067408084,0.00030517578125,0.0
0.0759999999999999,0.0437838770449161,0.00091552734375,0.0
0.0765,0.0437676720321178,0.00030517578125,0.0
0.0769999999999999,0.0437510423362255,0.00030517578125,0.0
0.0775,0.0437345430254936,0.0,0.0
0.0779999999999999,0.0437183603644371,0.0006103515625,0.0
0.0785,0.0437017418444156,0.0006103515625,0.0
0.0789999999999999,0.0436852127313613,0.00030517578125,0.0
0.0795,0.0436686538159847,0.00091552734375,0.0
0.0799999999999999,0.0436524301767349,0.00091552734375,0.0
0.0805,0.0436358489096164,0.00091552734375,0.0
0.0809999999999999,0.0436191074550151,0.0006103515625,0.0
0.0815,0.0436027310788631,0.0006103515625,0.0
0.0819999999999999,0.0435862615704536,0.00030517578125,0.0
0.0825,0.0435696355998516,0.001220703125,0.0
0.0829999999999999,0.0435534641146659,-0.00030517578125,0.0
0.0835,0.0435368977487087,0.00030517578125,0.0
0.0839999999999999,0.0435204952955246,0.0006103515625,0.0
0.0845,0.0435036644339561,0.00030517578125,0.0
0.0849999999999999,0.0434873327612876,0.00091552734375,0.0
0.0855,0.0434708669781684,0.0006103515625,0.0
0.0859999999999999,0.0434540174901485,0.00030517578125,0.0
0.0865,0.0434375591576099,0.00030517578125,0.0
0.0869999999999999,0.0434210635721683,0.0006103515625,0.0
0.0875,0.0434048026800155,0.00030517578125,0.0
0.0879999999999999,0.0433884374797344,0.00030517578125,0.0
0.0885,0.0433714315295219,0.0006103515625,0.0
0.0889999999999999,0.0433555468916893,0.00030517578125,0.0
0.0895,0.0433388389647007,0.00091552734375,0.0
0.0899999999999999,0.0433225482702255,0.00091552734375,0.0
0.0905,0.0433060005307197,0.00030517578125,0.0
0.0909999999999999,0.0432894937694072,0.00030517578125,0.0
0.0915,0.043273489922285,0.0006103515625,0.0
0.0919999999999999,0.0432565361261367,0.0006103515625,0.0
0.0925,0.0432398878037929,0.00030517578125,0.0
0.0929999999999999,0.0432235188782215,0.0,0.0
0.0935,0.0432072095572948,0.0006103515625,0.0
0.0939999999999999,0.0431908518075943,0.0,0.0
0.0945,0.0431742332875728,0.0006103515625,0.0
0.0949999999999999,0.0431577675044536,0.00030517578125,0.0
0.0955,0.0431412160396575,0.00030517578125,0.0
0.0959999999999999,0.0431246906518936,0.0006103515625,0.0
0.0965,0.043108332902193,0.00091552734375,0.0
0.0969999999999999,0.0430918559432029,0.00091552734375,0.0
0.0975,0.0430751256644725,0.00030517578125,0.0
0.0979999999999999,0.0430589616298675,0.00091552734375,0.0
0.0985,0.043042242527008,0.00030517578125,0.0
0.0989999999999999,0.0430259481072425,0.00091552734375,0.0
0.0995,0.0430091321468353,0.00091552734375,0.0
0.0999999999999999,0.0429928787052631,0.00091552734375,0.0
0.1005,0.0429763458669185,0.00030517578125,0.0
0.1009999999999999,0.0429599732160568,0.00030517578125,0.0
0.1015,0.0429437384009361,0.0006103515625,0.0
0.1019999999999999,0.0429267436265945,0.0006103515625,0.0
0.1025,0.0429106727242469,0.0,0.0
0.1029999999999999,0.042893961071968,0.0006103515625,0.0
0.1035,0.0428776293992996,0.00091552734375,0.0
0.1039999999999999,0.0428609400987625,0.0006103515625,0.0
0.1045,0.042844571173191,0.0006103515625,0.0
0.1049999999999999,0.0428281836211681,0.0006103515625,0.0
0.1055,0.0428113639354705,0.00030517578125,0.0
0.1059999999999999,0.042794857174158,0.0,0.0
0.1065,0.0427788197994232,0.00091552734375,0.0
0.1069999999999999,0.042762104421854,0.00091552734375,0.0
0.1075,0.0427456647157669,0.0006103515625,0.0
0.1079999999999999,0.042729265987873,0.0006103515625,0.0
0.1085,0.0427127219736576,0.0006103515625,0.0
0.1089999999999999,0.0426961816847324,0.00030517578125,0.0
0.1095,0.0426795147359371,0.00030517578125,0.0
0.1099999999999999,0.042663101106882,0.00030517578125,0.0
0.1105,0.0426463410258293,0.0006103515625,0.0
0.1109999999999999,0.0426300354301929,0.00030517578125,0.0
0.1115,0.0426139757037162,0.0006103515625,0.0
0.1119999999999999,0.0425971448421478,0.0006103515625,0.0
0.1125,0.042580708861351,0.0006103515625,0.0
0.1129999999999999,0.0425643324851989,0.0006103515625,0.0
0.1135,0.042547807097435,0.0006103515625,0.0
0.1139999999999999,0.0425311960279941,0.00091552734375,0.0
0.1145,0.0425149202346801,0.0006103515625,0.0
0.1149999999999999,0.0424984730780124,0.00030517578125,0.0
0.1155,0.0424817912280559,0.0006103515625,0.0
0.1159999999999999,0.0424653850495815,0.0006103515625,0.0
0.1165,0.0424490347504615,0.00091552734375,0.0
0.1169999999999999,0.0424323342740535,0.0006103515625,0.0
0.1175,0.0424159690737724,0.0006103515625,0.0
0.118,0.042399451136589,0.0006103515625,0.0
0.1185,0.0423829481005668,0.0006103515625,0.0
0.119,0.0423665009438991,0.00091552734375,0.0
0.1195,0.0423499718308448,0.00030517578125,0.0
0.12,0.0423340499401092,0.0006103515625,0.0
0.1205,0.0423167683184146,0.00091552734375,0.0
0.121,0.0423003509640693,0.00091552734375,0.0
0.1215,0.0422842279076576,0.00030517578125,0.0
0.122,0.0422675758600235,0.0006103515625,0.0
0.1225,0.0422509759664535,0.00030517578125,0.0
0.123,0.0422345399856567,0.0006103515625,0.0
0.1235,0.0422181785106658,0.00030517578125,0.0
0.124,0.0422014184296131,0.00030517578125,0.0
0.1245,0.0421849563717842,0.0,0.0
0.125,0.0421686097979545,0.0006103515625,0.0
0.1254999999999999,0.0421520620584487,0.00030517578125,0.0
0.126,0.0421357490122318,0.0006103515625,0.0
0.1264999999999999,0.0421193614602088,0.00030517578125,0.0
0.127,0.0421024858951568,0.0006103515625,0.0
0.1274999999999999,0.0420865714550018,0.0006103515625,0.0
0.128,0.0420705080032348,0.00030517578125,0.0
0.1284999999999999,0.0420553311705589,0.00030517578125,0.0
0.129,0.0420406907796859,0.00091552734375,0.0
0.1294999999999999,0.0420273058116436,0.00030517578125,0.0
0.13,0.0420161336660385,0.0006103515625,0.0
0.1304999999999999,0.0420063994824886,0.00091552734375,0.0
0.131,0.0419993922114372,0.0006103515625,0.0
0.1314999999999999,0.041994635015726,0.00030517578125,0.0
0.132,0.0419930927455425,0.0006103515625,0.0
0.1324999999999999,0.0419946536421775,0.0006103515625,0.0
0.133,0.0419982895255088,0.00091552734375,0.0
0.1334999999999999,0.0420053042471408,0.00030517578125,0.0
0.134,0.0420138835906982,0.00030517578125,0.0
0.1344999999999999,0.0420257709920406,0.0006103515625,0.0
0.135,0.0420390106737613,0.001220703125,0.0
0.1354999999999999,0.0420530959963798,0.0006103515625,0.0
0.136,0.0420689359307289,0.001220703125,0.0
0.1364999999999999,0.0420846901834011,0.001220703125,0.0
0.137,0.0421012490987777,0.001220703125,0.0
0.1374999999999999,0.0421178825199604,0.0006103515625,0.0
0.138,0.0421345271170139,0.00030517578125,0.0
0.1384999999999999,0.0421510301530361,0.0006103515625,0.0
0.139,0.042167492210865,0.00030517578125,0.0
0.1394999999999999,0.0421842150390148,0.00030517578125,0.0
0.14,0.0422005355358123,0.0,0.0
0.1404999999999999,0.0422166995704174,0.0,0.0
0.141,0.0422335155308246,0.00030517578125,0.0
0.1414999999999999,0.0422496646642684,0.0006103515625,0.0
0.142,0.0422662012279033,0.00030517578125,0.0
0.1424999999999999,0.0422828495502471,0.0006103515625,0.0
0.143,0.0422992929816246,0.0006103515625,0.0
0.1434999999999999,0.0423159338533878,0.0006103515625,0.0
0.144,0.0423321053385734,0.00030517578125,0.0
0.1444999999999999,0.0423490442335605,0.00030517578125,0.0
0.145,0.0423656143248081,0.00030517578125,0.0
0.1454999999999999,0.042381964623928,0.0,0.0
0.146,0.0423985719680786,0.00030517578125,0.0
0.1464999999999999,0.0424145869910717,0.0006103515625,0.0
0.147,0.0424313135445117,0.00091552734375,0.0
0.1474999999999999,0.0424476340413093,0.00030517578125,0.0
0.148,0.0424643084406852,0.00091552734375,0.0
0.1484999999999999,0.0424806177616119,0.0006103515625,0.0
0.149,0.0424968414008617,0.0,0.0
0.1494999999999999,0.0425133258104324,0.00091552734375,0.0
0.15,0.0425299443304538,0.0006103515625,0.0
0.1504999999999999,0.0425463654100894,0.00030517578125,0.0
0.151,0.0425628498196601,0.0006103515625,0.0
0.1514999999999999,0.0425793305039405,0.00091552734375,0.0
0.152,0.0425958931446075,0.00091552734375,0.0
0.1524999999999999,0.0426121093332767,0.0006103515625,0.0
0.153,0.0426287613809108,0.0,0.0
0.1534999999999999,0.04264522716403,0.00030517578125,0.0
0.154,0.0426615066826343,0.0006103515625,0.0
0.1544999999999999,0.0426781140267849,0.0006103515625,0.0
0.155,0.0426947437226772,0.00091552734375,0.0
0.1554999999999999,0.0427111461758613,0.0006103515625,0.0
0.156,0.0427275486290454,0.00030517578125,0.0
0.1564999999999999,0.04274383187294,0.0006103515625,0.0
0.157,0.0427608266472816,0.0006103515625,0.0
0.1574999999999999,0.042777344584465,0.00091552734375,0.0
0.158,0.0427938811480999,0.00091552734375,0.0
0.1584999999999999,0.0428100004792213,0.00030517578125,0.0
0.159,0.0428262874484062,0.0006103515625,0.0
0.1594999999999999,0.0428429692983627,0.0006103515625,0.0
0.16,0.0428596809506416,0.00091552734375,0.0
0.1604999999999999,0.0428759604692459,0.00030517578125,0.0
0.161,0.0428927689790725,0.0006103515625,0.0
0.1614999999999999,0.0429091453552246,0.0006103515625,0.0
0.162,0.0429257601499557,0.00030517578125,0.0
0.1624999999999999,0.0429419353604316,0.00030517578125,0.0
0.163,0.0429585799574852,0.0006103515625,0.0
0.1634999999999999,0.0429754219949245,0.0006103515625,0.0
0.164,0.0429913066327571,0.00030517578125,0.0
0.1644999999999999,0.0430080480873584,0.0,0.0
0.165,0.0430242531001567,0.00030517578125,0.0
0.1654999999999999,0.0430408380925655,0.00030517578125,0.0
0.166,0.0430570170283317,0.0006103515625,0.0
0.1664999999999999,0.0430738776922225,0.00030517578125,0.0
0.167,0.0430909693241119,0.00030517578125,0.0
0.1674999999999999,0.0431063808500766,0.0006103515625,0.0
0.168,0.04312339797616,0.00030517578125,0.0
0.1684999999999999,0.0431397855281829,0.0006103515625,0.0
0.169,0.043156087398529,0.001220703125,0.0
0.1694999999999999,0.0431730113923549,0.00091552734375,0.0
0.17,0.0431891269981861,0.00030517578125,0.0
0.1704999999999999,0.0432059466838836,0.00091552734375,0.0
0.171,0.0432221628725528,0.001220703125,0.0
0.1714999999999999,0.0432387590408325,0.00030517578125,0.0
0.172,0.0432551950216293,0.0006103515625,0.0
0.1725,0.0432712584733963,0.0006103515625,0.0
0.173,0.0432880334556102,0.0006103515625,7.950134535816069e-05
0.1735,0.0433044172823429,0.00030517578125,0.0012457581659952436
0.174,0.0433208905160427,0.00030517578125,0.0037562137846096134
0.1745,0.0433372072875499,0.0006103515625,0.00745665381739573
0.175,0.0433537177741527,-0.00030517578125,0.01226196554238836
0.1755,0.0433705113828182,0.00030517578125,0.018082971470396256
0.176,0.0433864891529083,0.0006103515625,0.024451779602275348
0.1765,0.0434032455086708,0.00030517578125,0.031782079486769706
0.177,0.043419774621725,0.0,0.03965078738213863
0.1775,0.0434357859194278,0.00091552734375,0.047825392085895854
0.178,0.0434526763856411,0.0006103515625,0.05693387078816364
0.1785,0.043468739837408,0.0006103515625,0.06606401682707466
0.179,0.0434855371713638,0.00091552734375,0.0760730189907444
0.1795,0.0435020625591278,0.00030517578125,0.08639632333677393
0.18,0.0435186587274074,0.0006103515625,0.09702216634733299
0.1805,0.0435352697968483,0.00030517578125,0.10753192597366304
0.181,0.0435514524579048,0.0006103515625,0.11715694340717395
0.1815,0.0435682535171508,0.0006103515625,0.12636410730868738
0.182,0.0435845293104648,0.00030517578125,0.13413636628263456
0.1825,0.0436013527214527,0.00030517578125,0.1413215272391574
0.183,0.0436178930103778,0.00091552734375,0.1472760357164686
0.1835,0.0436340570449829,0.00030517578125,0.1520336438834866
0.184,0.0436508245766162,0.0006103515625,0.15653356883665268
0.1845,0.0436674505472183,0.0006103515625,0.16019536369390083
0.185,0.0436838306486606,0.0006103515625,0.16304739286167846
0.1855,0.0437001734972,0.0006103515625,0.16538652919522734
0.186,0.0437164716422557,0.0,0.16728609563385066
0.1865,0.0437331683933734,0.0,0.16919347984067143
